Sc-45(n,g) ENDFB-8.0
Energy(eV) XS(b)
1.00000E-05 1366.19
1.03125E-05 1345.33
1.06250E-05 1325.40
1.09375E-05 1306.33
1.12500E-05 1288.06
1.15625E-05 1270.53
1.18750E-05 1253.70
1.21875E-05 1237.53
1.25000E-05 1221.96
1.28125E-05 1206.97
1.31250E-05 1192.51
1.34375E-05 1178.56
1.37500E-05 1165.09
1.43750E-05 1139.48
1.50000E-05 1115.49
1.56250E-05 1092.95
1.62500E-05 1071.73
1.68750E-05 1051.69
1.75000E-05 1032.74
1.81250E-05 1014.78
1.87500E-05 997.725
1.93750E-05 981.501
2.00000E-05 966.043
2.09375E-05 944.168
2.18750E-05 923.714
2.28125E-05 904.534
2.37500E-05 886.502
2.46875E-05 869.507
2.56250E-05 853.453
2.65625E-05 838.257
2.75000E-05 823.844
2.84375E-05 810.151
2.93750E-05 797.118
3.03125E-05 784.695
3.12500E-05 772.834
3.21875E-05 761.496
3.31250E-05 750.643
3.40625E-05 740.241
3.50000E-05 730.260
3.59375E-05 720.672
3.68750E-05 711.452
3.78125E-05 702.577
3.87500E-05 694.026
3.96875E-05 685.780
4.06250E-05 677.821
4.25000E-05 662.700
4.43750E-05 648.548
4.62500E-05 635.266
4.81250E-05 622.768
5.00000E-05 610.979
5.15625E-05 601.651
5.31250E-05 592.737
5.46875E-05 584.208
5.62500E-05 576.037
5.78125E-05 568.199
5.93750E-05 560.673
6.09375E-05 553.438
6.25000E-05 546.476
6.40625E-05 539.771
6.56250E-05 533.306
6.71875E-05 527.069
6.87500E-05 521.045
7.18750E-05 509.592
7.50000E-05 498.863
7.81250E-05 488.783
8.12500E-05 479.292
8.43750E-05 470.332
8.75000E-05 461.857
9.06250E-05 453.824
9.37500E-05 446.196
9.68750E-05 438.941
0.000100000 432.028
0.000103125 425.431
0.000106250 419.128
0.000109375 413.097
0.000112500 407.320
0.000115625 401.778
0.000118750 396.456
0.000121875 391.340
0.000125000 386.417
0.000128125 381.676
0.000131250 377.105
0.000134375 372.694
0.000137500 368.434
0.000143750 360.336
0.000150000 352.749
0.000156250 345.622
0.000162500 338.910
0.000168750 332.575
0.000175000 326.582
0.000181250 320.902
0.000187500 315.508
0.000193750 310.378
0.000200000 305.490
0.000209375 298.572
0.000218750 292.104
0.000228125 286.039
0.000237500 280.337
0.000246875 274.962
0.000256250 269.886
0.000265625 265.080
0.000275000 260.522
0.000284375 256.192
0.000293750 252.071
0.000303125 248.142
0.000312500 244.392
0.000321875 240.806
0.000331250 237.374
0.000340625 234.085
0.000350000 230.928
0.000359375 227.896
0.000368750 224.981
0.000378125 222.174
0.000387500 219.470
0.000396875 216.863
0.000406250 214.346
0.000425000 209.564
0.000443750 205.089
0.000462500 200.889
0.000481250 196.936
0.000500000 193.209
0.000515625 190.259
0.000531250 187.440
0.000546875 184.743
0.000562500 182.159
0.000578125 179.680
0.000593750 177.300
0.000609375 175.012
0.000625000 172.811
0.000640625 170.691
0.000656250 168.646
0.000671875 166.674
0.000687500 164.769
0.000718750 161.147
0.000750000 157.754
0.000781250 154.567
0.000812500 151.565
0.000843750 148.732
0.000875000 146.052
0.000906250 143.512
0.000937500 141.099
0.000968750 138.805
0.00100000 136.619
0.00103125 134.533
0.00106250 132.540
0.00109375 130.633
0.00112500 128.806
0.00115625 127.053
0.00118750 125.370
0.00121875 123.752
0.00125000 122.196
0.00128125 120.696
0.00131250 119.251
0.00134375 117.856
0.00137500 116.509
0.00143750 113.948
0.00150000 111.549
0.00156250 109.295
0.00162500 107.172
0.00168750 105.169
0.00175000 103.274
0.00181250 101.478
0.00187500 99.7720
0.00193750 98.1495
0.00200000 96.6038
0.00209375 94.4162
0.00218750 92.3708
0.00228125 90.4528
0.00237500 88.6495
0.00246875 86.9500
0.00256250 85.3446
0.00265625 83.8249
0.00275000 82.3836
0.00284375 81.0142
0.00293750 79.7109
0.00303125 78.4686
0.00312500 77.2826
0.00321875 76.1487
0.00331250 75.0634
0.00340625 74.0232
0.00350000 73.0250
0.00359375 72.0662
0.00368750 71.1442
0.00378125 70.2567
0.00387500 69.4015
0.00396875 68.5769
0.00406250 67.7810
0.00425000 66.2689
0.00443750 64.8537
0.00462500 63.5254
0.00481250 62.2756
0.00500000 61.0967
0.00515625 60.1639
0.00531250 59.2725
0.00546875 58.4195
0.00562500 57.6024
0.00578125 56.8186
0.00593750 56.0660
0.00609375 55.3425
0.00625000 54.6463
0.00640625 53.9757
0.00656250 53.3293
0.00671875 52.7055
0.00687500 52.1031
0.00718750 50.9578
0.00750000 49.8848
0.00781250 48.8768
0.00812500 47.9276
0.00843750 47.0316
0.00875000 46.1841
0.00906250 45.3808
0.00937500 44.6180
0.00968750 43.8924
0.0100000 43.2011
0.0103125 42.5414
0.0106250 41.9111
0.0109375 41.3080
0.0112500 40.7302
0.0115625 40.1760
0.0118750 39.6438
0.0121875 39.1322
0.0125000 38.6399
0.0128125 38.1658
0.0131250 37.7087
0.0134375 37.2676
0.0137500 36.8416
0.0143750 36.0317
0.0150000 35.2730
0.0156250 34.5603
0.0162500 33.8891
0.0168750 33.2555
0.0175000 32.6561
0.0181250 32.0880
0.0187500 31.5486
0.0193750 31.0355
0.0200000 30.5466
0.0206625 30.0528
0.0213250 29.5822
0.0219875 29.1330
0.0226500 28.7037
0.0233125 28.2928
0.0239750 27.8991
0.0246375 27.5214
0.0253000 27.1586
0.0264578 26.5576
0.0276156 25.9949
0.0287734 25.4665
0.0299313 24.9690
0.0310891 24.4997
0.0322469 24.0558
0.0334047 23.6352
0.0345625 23.2359
0.0355274 22.9182
0.0364922 22.6131
0.0374570 22.3199
0.0384219 22.0378
0.0393867 21.7661
0.0403516 21.5042
0.0413164 21.2516
0.0422813 21.0076
0.0442109 20.5438
0.0461406 20.1094
0.0480703 19.7014
0.0500000 19.3173
0.0515625 19.0222
0.0531250 18.7403
0.0546875 18.4705
0.0562500 18.2120
0.0578125 17.9641
0.0593750 17.7261
0.0609375 17.4973
0.0625000 17.2772
0.0640625 17.0651
0.0656250 16.8607
0.0671875 16.6635
0.0687500 16.4730
0.0718750 16.1108
0.0750000 15.7715
0.0781250 15.4527
0.0812500 15.1525
0.0843750 14.8690
0.0875000 14.6009
0.0906250 14.3467
0.0937500 14.1054
0.0968750 13.8758
0.100000 13.6571
0.103125 13.4483
0.106250 13.2489
0.109375 13.0581
0.112500 12.8753
0.115625 12.7000
0.118750 12.5316
0.121875 12.3698
0.125000 12.2141
0.128125 12.0642
0.131250 11.9196
0.134375 11.7801
0.137500 11.6454
0.143750 11.3894
0.150000 11.1494
0.156250 10.9239
0.162500 10.7115
0.168750 10.5110
0.175000 10.3213
0.181250 10.1416
0.187500 9.97094
0.193750 9.80864
0.200000 9.65402
0.209375 9.43518
0.218750 9.23051
0.228125 9.03853
0.237500 8.85800
0.246875 8.68785
0.256250 8.52711
0.265625 8.37497
0.275000 8.23067
0.284375 8.09356
0.293750 7.96307
0.303125 7.83868
0.312500 7.71993
0.321875 7.60640
0.331250 7.49773
0.340625 7.39357
0.350000 7.29363
0.359375 7.19763
0.368750 7.10532
0.378125 7.01648
0.387500 6.93091
0.396875 6.84842
0.406250 6.76881
0.425000 6.61754
0.443750 6.47585
0.462500 6.34283
0.500000 6.09987
0.531250 5.91735
0.562500 5.74996
0.593750 5.59590
0.625000 5.45353
0.687500 5.19848
0.750000 4.97600
0.812500 4.77971
0.875000 4.60530
0.937500 4.44855
1.00000 4.30625
1.06250 4.17667
1.12500 4.05803
1.18750 3.94887
1.25000 3.84800
1.37500 3.66726
1.50000 3.50956
1.62500 3.37039
1.75000 3.24670
1.87500 3.13554
2.00000 3.03444
2.18750 2.89941
2.37500 2.78078
2.56250 2.67536
2.75000 2.58110
2.93750 2.49596
3.12500 2.41832
3.31250 2.34733
3.50000 2.28209
3.87500 2.16603
4.25000 2.06559
4.62500 1.97753
5.00000 1.89958
5.31250 1.84099
5.62500 1.78720
5.93750 1.73767
6.25000 1.69186
6.87500 1.60969
7.50000 1.53789
8.12500 1.47443
8.75000 1.41787
9.37500 1.36699
10.0000 1.32078
10.6250 1.27864
11.2500 1.24000
11.8750 1.20439
12.5000 1.17144
13.7500 1.11225
15.0000 1.06047
16.2500 1.01463
17.5000 0.973719
18.7500 0.936857
20.0000 0.903349
21.8750 0.858431
23.7500 0.818796
25.6250 0.783455
27.5000 0.751698
29.3750 0.722926
31.2500 0.696663
33.1250 0.672581
35.0000 0.650389
36.8750 0.629847
38.7500 0.610757
42.5000 0.576294
46.2500 0.545949
50.0000 0.518964
53.1250 0.498613
56.2500 0.479905
59.3750 0.462639
62.5000 0.446637
65.6250 0.431752
68.7500 0.417859
75.0000 0.392642
81.2500 0.370311
87.5000 0.350368
93.7500 0.332413
100.000 0.316133
106.250 0.301297
112.500 0.287709
118.750 0.275209
125.000 0.263665
131.250 0.252967
137.500 0.243021
143.750 0.233747
150.000 0.225079
156.250 0.216956
162.500 0.209328
168.750 0.202151
175.000 0.195389
187.500 0.182960
200.000 0.171801
208.128 0.165140
216.255 0.158901
224.382 0.153042
232.510 0.147532
240.637 0.142340
248.765 0.137444
265.019 0.128439
281.274 0.120355
297.529 0.113068
313.784 0.106477
330.039 0.100498
342.230 0.0964136
354.421 0.0925862
366.612 0.0890005
378.803 0.0856583
390.994 0.0826688
403.185 0.0799149
409.281 0.0787349
415.376 0.0777153
421.472 0.0768641
427.567 0.0764120
432.393 0.0765208
434.806 0.0768446
437.219 0.0774470
439.632 0.0784621
440.838 0.0791921
442.044 0.0800881
443.251 0.0812528
444.457 0.0827619
445.664 0.0847196
446.267 0.0859153
446.870 0.0872883
447.505 0.0889568
448.140 0.0909033
448.775 0.0932038
449.410 0.0959450
450.045 0.0992334
450.680 0.103211
450.997 0.105517
451.315 0.108073
451.632 0.110916
451.950 0.114091
452.299 0.118035
452.648 0.122538
452.997 0.127712
453.347 0.133691
453.696 0.140653
453.871 0.144568
454.045 0.148818
454.220 0.153440
454.394 0.158481
454.569 0.163992
454.744 0.170035
454.950 0.177963
455.156 0.186872
455.363 0.196945
455.569 0.208388
455.672 0.214709
455.775 0.221479
455.879 0.228743
455.982 0.236545
456.085 0.244955
456.188 0.254033
456.291 0.263853
456.394 0.274491
456.474 0.283308
456.553 0.292726
456.633 0.302802
456.712 0.313587
456.791 0.325185
456.871 0.337665
456.950 0.351124
457.029 0.365654
457.109 0.381417
457.188 0.398542
457.268 0.417198
457.347 0.437550
457.426 0.459877
457.506 0.484413
457.585 0.511461
457.664 0.541332
457.752 0.577999
457.795 0.598028
457.839 0.619239
457.883 0.641822
457.926 0.665776
457.970 0.691317
458.014 0.718446
458.057 0.747411
458.101 0.778210
458.145 0.811126
458.188 0.846156
458.232 0.883617
458.275 0.923502
458.319 0.966167
458.363 1.01160
458.406 1.06018
458.450 1.11189
458.494 1.16716
458.537 1.22594
458.581 1.28870
458.625 1.35535
458.668 1.42640
458.712 1.50171
458.756 1.58183
458.799 1.66657
458.843 1.75647
458.887 1.85129
458.930 1.95159
458.974 2.05702
459.018 2.16814
459.061 2.28450
459.109 2.41811
459.156 2.55797
459.204 2.70428
459.252 2.85687
459.347 3.18027
459.442 3.52476
459.530 3.85644
459.617 4.19825
459.791 4.89230
459.879 5.23395
459.967 5.56086
460.055 5.86626
460.142 6.14197
460.196 6.29189
460.249 6.42666
460.302 6.54522
460.355 6.64635
460.408 6.72914
460.461 6.79239
460.514 6.83560
460.567 6.85831
460.600 6.86198
460.653 6.85115
460.706 6.81966
460.759 6.76786
460.813 6.69630
460.866 6.60557
460.919 6.49696
460.972 6.37146
461.025 6.23034
461.126 5.92562
461.226 5.58094
461.326 5.20678
461.427 4.81507
461.636 3.98805
461.740 3.58862
461.845 3.20897
461.897 3.02837
461.949 2.85464
462.001 2.68818
462.053 2.52927
462.106 2.37809
462.158 2.23476
462.210 2.09927
462.262 1.97156
462.305 1.87257
462.348 1.77884
462.390 1.69002
462.433 1.60598
462.476 1.52655
462.518 1.45157
462.561 1.38087
462.604 1.31428
462.647 1.25146
462.689 1.19252
462.732 1.13711
462.775 1.08507
462.817 1.03619
462.860 0.990308
462.903 0.947240
462.946 0.906817
462.998 0.860673
463.050 0.818046
463.102 0.778575
463.154 0.742007
463.207 0.708108
463.259 0.676656
463.311 0.647450
463.363 0.620302
463.415 0.595039
463.468 0.571502
463.520 0.549548
463.572 0.529043
463.624 0.509868
463.676 0.491911
463.729 0.475074
463.781 0.459265
463.862 0.436660
463.942 0.416048
464.023 0.397196
464.104 0.379925
464.184 0.364018
464.265 0.349348
464.346 0.335785
464.426 0.323231
464.507 0.311556
464.588 0.300688
464.668 0.290554
464.749 0.281096
464.910 0.263922
465.072 0.248789
465.176 0.239916
465.281 0.231696
465.385 0.224057
465.489 0.216945
465.698 0.204112
465.907 0.192871
466.116 0.182965
466.325 0.174187
466.533 0.166369
466.742 0.159373
466.942 0.153355
467.141 0.147903
467.340 0.142944
467.539 0.138419
467.739 0.134276
467.938 0.130475
468.137 0.126978
468.337 0.123752
468.735 0.118008
469.134 0.113062
469.533 0.108771
469.931 0.105025
470.235 0.102478
470.729 0.0988154
471.222 0.0956432
471.716 0.0928734
472.209 0.0904411
472.703 0.0882924
473.196 0.0863845
473.690 0.0846807
474.183 0.0831525
475.170 0.0805325
476.158 0.0783773
477.145 0.0765596
478.132 0.0750073
479.499 0.0732060
480.865 0.0717138
482.232 0.0704574
483.599 0.0693970
486.332 0.0676289
489.066 0.0662231
494.533 0.0640906
500.000 0.0624427
507.813 0.0605654
515.625 0.0589916
523.438 0.0575993
531.250 0.0563278
546.875 0.0540220
562.500 0.0519366
578.125 0.0500157
593.750 0.0482286
609.375 0.0465563
625.000 0.0449867
656.250 0.0421135
687.500 0.0395476
718.750 0.0372459
750.000 0.0351736
781.250 0.0333027
812.500 0.0316106
843.750 0.0300790
875.000 0.0286948
906.250 0.0274519
937.500 0.0263577
953.125 0.0258787
968.750 0.0254649
984.375 0.0251504
992.188 0.0250545
1000.00 0.0250275
1008.83 0.0251273
1013.24 0.0252639
1017.66 0.0254901
1022.07 0.0258503
1026.48 0.0264108
1028.69 0.0268070
1030.90 0.0273163
1033.11 0.0279739
1035.31 0.0288355
1036.82 0.0295848
1038.33 0.0305021
1039.84 0.0316380
1041.35 0.0330849
1042.86 0.0349551
1043.62 0.0360987
1044.37 0.0374191
1045.13 0.0389539
1045.88 0.0407513
1046.64 0.0428725
1047.39 0.0453970
1047.86 0.0471982
1048.32 0.0492221
1048.93 0.0522992
1049.54 0.0559628
1050.15 0.0603729
1050.76 0.0657453
1051.07 0.0688820
1051.37 0.0723811
1051.68 0.0763016
1051.98 0.0807152
1052.29 0.0857108
1052.59 0.0913992
1052.90 0.0979202
1053.20 0.105452
1053.52 0.114696
1053.84 0.125626
1054.16 0.138753
1054.32 0.146370
1054.48 0.154763
1054.64 0.164176
1054.80 0.174729
1054.96 0.186631
1055.12 0.200057
1055.28 0.215506
1055.44 0.233199
1055.60 0.253890
1055.75 0.277984
1055.91 0.306630
1055.99 0.322930
1056.07 0.340751
1056.15 0.360266
1056.23 0.381666
1056.31 0.405162
1056.39 0.430647
1056.47 0.459015
1056.55 0.490232
1056.63 0.524592
1056.71 0.562411
1056.79 0.604023
1056.87 0.649780
1056.95 0.700051
1057.03 0.754495
1057.09 0.798492
1057.15 0.844692
1057.21 0.893967
1057.27 0.946461
1057.32 1.00232
1057.38 1.06168
1057.44 1.12467
1057.50 1.19142
1057.56 1.26203
1057.61 1.33661
1057.67 1.41524
1057.73 1.49798
1057.79 1.58488
1057.85 1.67596
1057.90 1.77122
1057.96 1.87063
1058.04 2.01445
1058.12 2.16580
1058.20 2.32431
1058.28 2.48946
1058.44 2.83702
1058.60 3.19935
1058.98 4.07101
1059.14 4.41745
1059.22 4.57913
1059.30 4.72906
1059.39 4.89275
1059.48 5.03667
1059.58 5.16047
1059.67 5.26223
1059.75 5.33312
1059.84 5.38427
1059.92 5.41501
1060.00 5.42495
1060.07 5.41790
1060.18 5.37801
1060.28 5.30460
1060.39 5.19789
1060.50 5.06212
1060.58 4.94115
1060.66 4.80778
1060.74 4.66210
1060.82 4.50567
1060.85 4.44663
1060.93 4.28033
1061.01 4.10732
1061.16 3.74989
1061.42 3.15017
1061.55 2.85691
1061.68 2.57452
1061.76 2.40859
1061.84 2.24883
1061.92 2.09579
1061.99 1.95170
1062.07 1.81315
1062.15 1.68225
1062.23 1.55907
1062.31 1.44504
1062.38 1.34109
1062.46 1.24530
1062.54 1.15494
1062.61 1.07215
1062.69 0.994465
1062.76 0.923642
1062.84 0.858318
1062.91 0.798180
1062.99 0.742205
1063.06 0.691541
1063.14 0.645103
1063.21 0.602581
1063.29 0.563179
1063.36 0.527642
1063.44 0.495152
1063.51 0.465451
1063.63 0.424771
1063.74 0.389271
1063.86 0.358238
1063.97 0.331263
1064.09 0.307330
1064.20 0.286218
1064.32 0.267524
1064.43 0.251037
1064.55 0.236178
1064.66 0.222851
1064.78 0.210847
1064.89 0.200079
1065.12 0.181287
1065.35 0.165548
1065.56 0.152952
1065.78 0.142048
1065.99 0.132528
1066.21 0.124153
1066.42 0.116739
1066.64 0.110136
1066.85 0.104226
1067.07 0.0989115
1067.50 0.0897599
1067.93 0.0821859
1068.36 0.0758374
1068.79 0.0704578
1069.13 0.0667222
1069.48 0.0634081
1070.16 0.0578097
1070.85 0.0532891
1071.54 0.0495843
1072.34 0.0460405
1073.15 0.0431348
1073.95 0.0407199
1074.75 0.0386919
1075.56 0.0369727
1076.36 0.0355026
1077.16 0.0342357
1077.96 0.0331391
1079.57 0.0313412
1081.17 0.0299233
1082.78 0.0287817
1084.39 0.0278531
1086.56 0.0268432
1088.74 0.0260444
1090.92 0.0253990
1093.10 0.0248707
1095.28 0.0244355
1097.46 0.0240536
1101.82 0.0234438
1106.17 0.0229727
1110.53 0.0225945
1119.25 0.0220173
1126.59 0.0216418
1133.93 0.0213313
1148.61 0.0208249
1163.29 0.0204085
1177.96 0.0200465
1207.32 0.0194191
1236.68 0.0188738
1266.04 0.0183860
1295.40 0.0179435
1324.76 0.0175397
1354.12 0.0171702
1394.48 0.0167150
1434.85 0.0163089
1475.22 0.0159506
1515.59 0.0156392
1555.96 0.0153662
1596.32 0.0151344
1636.69 0.0149395
1677.06 0.0147778
1713.76 0.0146637
1750.45 0.0145765
1787.15 0.0145156
1823.85 0.0144810
1867.89 0.0144788
1911.93 0.0145125
1955.96 0.0145905
2000.00 0.0147065
2022.33 0.0147829
2053.03 0.0149083
2083.73 0.0150554
2114.43 0.0152266
2145.13 0.0154249
2175.83 0.0156486
2206.53 0.0159033
2237.23 0.0161895
2267.93 0.0165078
2298.63 0.0168672
2329.33 0.0172653
2360.03 0.0177085
2390.73 0.0182053
2421.43 0.0187548
2452.13 0.0193724
2467.48 0.0197051
2482.83 0.0200634
2513.53 0.0208347
2533.77 0.0214007
2554.00 0.0220180
2574.23 0.0226939
2594.47 0.0234402
2614.70 0.0242774
2624.82 0.0247221
2634.94 0.0252189
2645.05 0.0257693
2655.17 0.0263946
2665.29 0.0271203
2670.35 0.0275556
2675.41 0.0280618
2682.38 0.0289366
2685.87 0.0295078
2689.36 0.0302284
2692.85 0.0311887
2696.34 0.0325608
2698.08 0.0335023
2699.83 0.0347368
2701.57 0.0364381
2703.31 0.0389165
2704.27 0.0408243
2705.23 0.0433545
2706.19 0.0468899
2706.67 0.0492507
2707.15 0.0522125
2707.63 0.0560721
2708.11 0.0613033
2708.59 0.0687179
2709.07 0.0796403
2709.31 0.0870698
2709.55 0.0962686
2709.79 0.107675
2710.03 0.121802
2710.27 0.139235
2710.51 0.160618
2710.75 0.186630
2710.99 0.217810
2711.13 0.238303
2711.26 0.260665
2711.40 0.285125
2711.54 0.311749
2711.67 0.340803
2711.81 0.371874
2711.94 0.405150
2712.08 0.440573
2712.35 0.517729
2712.63 0.601460
2712.90 0.690301
2713.17 0.780798
2713.40 0.856017
2713.63 0.927923
2713.86 0.994113
2714.09 1.05221
2714.22 1.08094
2714.35 1.10575
2714.48 1.12669
2714.61 1.14316
2714.80 1.15941
2715.00 1.16492
2715.13 1.16252
2715.26 1.15528
2715.39 1.14330
2715.52 1.12688
2715.67 1.10371
2715.81 1.07588
2715.95 1.04344
2716.10 1.00735
2716.25 0.964768
2716.40 0.919350
2716.71 0.821748
2717.33 0.619992
2717.50 0.565393
2717.67 0.513194
2717.85 0.463876
2718.02 0.417798
2718.20 0.375197
2718.37 0.336198
2718.54 0.300830
2718.72 0.269208
2718.89 0.240841
2719.06 0.215743
2719.24 0.193696
2719.41 0.174560
2719.59 0.157855
2719.76 0.143440
2719.93 0.131059
2720.11 0.120523
2720.35 0.108146
2720.60 0.0983441
2720.84 0.0905369
2721.09 0.0843724
2721.58 0.0755654
2722.07 0.0699564
2722.56 0.0663525
2723.05 0.0640600
2723.54 0.0626838
2724.03 0.0620009
2724.85 0.0620955
2725.67 0.0635530
2726.49 0.0664045
2727.31 0.0709202
2727.72 0.0739791
2728.13 0.0777107
2728.54 0.0822983
2728.94 0.0880028
2729.35 0.0952207
2729.76 0.104566
2730.17 0.117004
2730.38 0.124845
2730.58 0.134039
2730.77 0.143838
2730.95 0.155253
2731.13 0.168665
2731.32 0.184463
2731.50 0.203102
2731.69 0.225103
2731.87 0.251055
2732.05 0.281617
2732.24 0.317507
2732.42 0.359495
2732.61 0.408385
2732.79 0.464994
2732.97 0.530118
2733.16 0.604501
2733.34 0.688786
2733.53 0.783472
2733.71 0.889458
2733.89 1.00565
2734.08 1.13232
2734.26 1.26887
2734.45 1.41430
2734.63 1.56720
2735.00 1.88773
2735.41 2.24649
2735.61 2.41744
2735.82 2.57571
2735.93 2.65665
2736.04 2.73123
2736.15 2.80008
2736.27 2.86135
2736.38 2.91773
2736.50 2.96480
2736.62 3.00255
2736.74 3.03057
2736.87 3.05024
2737.00 3.05667
2737.07 3.05491
2737.18 3.04497
2737.28 3.02656
2737.39 2.99951
2737.50 2.96458
2737.67 2.89034
2737.85 2.79744
2738.04 2.67754
2738.23 2.54170
2738.40 2.40495
2738.58 2.25987
2738.92 1.95574
2739.27 1.65014
2739.45 1.50239
2739.62 1.36042
2739.79 1.22562
2739.97 1.09906
2740.14 0.981498
2740.31 0.873958
2740.42 0.814438
2740.52 0.758283
2740.62 0.705461
2740.73 0.655919
2740.83 0.609581
2740.93 0.566356
2741.04 0.526136
2741.14 0.489151
2741.34 0.422574
2741.55 0.366186
2741.75 0.318304
2741.96 0.278277
2742.17 0.244642
2742.37 0.216618
2742.58 0.193307
2742.78 0.174004
2742.99 0.157839
2743.19 0.144393
2743.40 0.133048
2743.60 0.123516
2743.86 0.113653
2744.11 0.105522
2744.62 0.0929298
2745.12 0.0836729
2745.63 0.0765854
2746.14 0.0709819
2746.64 0.0664421
2747.15 0.0626944
2747.65 0.0595545
2748.67 0.0546057
2749.68 0.0509184
2750.69 0.0480908
2751.70 0.0458771
2753.09 0.0435466
2754.49 0.0417975
2755.88 0.0404492
2757.27 0.0393887
2760.05 0.0378702
2762.84 0.0368845
2765.62 0.0362330
