Cr-50(n,tot) ENDFB-8.0
Energy(eV) XS(b)
1.00000E-05 794.331
1.03125E-05 782.207
1.06250E-05 770.622
1.09375E-05 759.537
1.12500E-05 748.917
1.15625E-05 738.731
1.18750E-05 728.950
1.21875E-05 719.547
1.25000E-05 710.499
1.28125E-05 701.784
1.31250E-05 693.383
1.34375E-05 685.276
1.37500E-05 677.447
1.43750E-05 662.563
1.50000E-05 648.619
1.56250E-05 635.521
1.62500E-05 623.185
1.68750E-05 611.542
1.75000E-05 600.528
1.81250E-05 590.089
1.87500E-05 580.177
1.93750E-05 570.748
2.00000E-05 561.765
2.09375E-05 549.052
2.18750E-05 537.165
2.28125E-05 526.020
2.37500E-05 515.541
2.46875E-05 505.665
2.56250E-05 496.336
2.65625E-05 487.505
2.75000E-05 479.130
2.84375E-05 471.173
2.93750E-05 463.600
3.03125E-05 456.382
3.12500E-05 449.490
3.21875E-05 442.902
3.31250E-05 436.596
3.40625E-05 430.552
3.50000E-05 424.753
3.59375E-05 419.182
3.68750E-05 413.825
3.78125E-05 408.669
3.87500E-05 403.701
3.96875E-05 398.910
4.06250E-05 394.286
4.25000E-05 385.502
4.43750E-05 377.281
4.62500E-05 369.565
4.81250E-05 362.304
5.00000E-05 355.456
5.15625E-05 350.038
5.31250E-05 344.860
5.46875E-05 339.906
5.62500E-05 335.160
5.78125E-05 330.607
5.93750E-05 326.236
6.09375E-05 322.034
6.25000E-05 317.991
6.40625E-05 314.097
6.56250E-05 310.342
6.71875E-05 306.720
6.87500E-05 303.221
7.18750E-05 296.571
7.50000E-05 290.340
7.81250E-05 284.488
8.12500E-05 278.976
8.43750E-05 273.774
8.75000E-05 268.854
9.06250E-05 264.190
9.37500E-05 259.762
9.68750E-05 255.550
0.000100000 251.537
0.000103125 247.709
0.000106250 244.050
0.000109375 240.550
0.000112500 237.196
0.000115625 233.980
0.000118750 230.892
0.000121875 227.923
0.000125000 225.067
0.000128125 222.315
0.000131250 219.663
0.000134375 217.104
0.000137500 214.633
0.000143750 209.934
0.000150000 205.533
0.000156250 201.399
0.000162500 197.506
0.000168750 193.832
0.000175000 190.357
0.000181250 187.063
0.000187500 183.936
0.000193750 180.962
0.000200000 178.128
0.000209375 174.118
0.000218750 170.369
0.000228125 166.854
0.000237500 163.550
0.000246875 160.436
0.000256250 157.495
0.000265625 154.711
0.000275000 152.072
0.000284375 149.564
0.000293750 147.177
0.000303125 144.903
0.000312500 142.731
0.000321875 140.656
0.000331250 138.669
0.000340625 136.765
0.000350000 134.939
0.000359375 133.184
0.000368750 131.497
0.000378125 129.873
0.000387500 128.309
0.000396875 126.801
0.000406250 125.345
0.000425000 122.580
0.000443750 119.993
0.000462500 117.564
0.000481250 115.280
0.000500000 113.126
0.000515625 111.422
0.000531250 109.793
0.000546875 108.235
0.000562500 106.743
0.000578125 105.312
0.000593750 103.937
0.000609375 102.617
0.000625000 101.346
0.000640625 100.122
0.000656250 98.9423
0.000671875 97.8041
0.000687500 96.7050
0.000718750 94.6158
0.000750000 92.6591
0.000781250 90.8213
0.000812500 89.0911
0.000843750 87.4582
0.000875000 85.9138
0.000906250 84.4504
0.000937500 83.0611
0.000968750 81.7397
0.00100000 80.4810
0.00103125 79.2802
0.00106250 78.1330
0.00109375 77.0355
0.00112500 75.9842
0.00115625 74.9760
0.00118750 74.0080
0.00121875 73.0776
0.00125000 72.1825
0.00128125 71.3204
0.00131250 70.4894
0.00134375 69.6877
0.00137500 68.9136
0.00143750 67.4421
0.00150000 66.0639
0.00156250 64.7695
0.00162500 63.5509
0.00168750 62.4008
0.00175000 61.3131
0.00181250 60.2824
0.00187500 59.3038
0.00193750 58.3732
0.00200000 57.4866
0.00209375 56.2323
0.00218750 55.0598
0.00228125 53.9605
0.00237500 52.9272
0.00246875 51.9536
0.00256250 51.0340
0.00265625 50.1637
0.00275000 49.3385
0.00284375 48.5545
0.00293750 47.8085
0.00303125 47.0975
0.00312500 46.4188
0.00321875 45.7701
0.00331250 45.1492
0.00340625 44.5542
0.00350000 43.9833
0.00359375 43.4349
0.00368750 42.9077
0.00378125 42.4003
0.00387500 41.9114
0.00396875 41.4400
0.00406250 40.9851
0.00425000 40.1209
0.00443750 39.3122
0.00462500 38.5534
0.00481250 37.8394
0.00500000 37.1661
0.00515625 36.6334
0.00531250 36.1244
0.00546875 35.6374
0.00562500 35.1709
0.00578125 34.7235
0.00593750 34.2939
0.00609375 33.8809
0.00625000 33.4836
0.00640625 33.1009
0.00656250 32.7321
0.00671875 32.3762
0.00687500 32.0325
0.00718750 31.3791
0.00750000 30.7671
0.00781250 30.1922
0.00812500 29.6509
0.00843750 29.1400
0.00875000 28.6568
0.00906250 28.1989
0.00937500 27.7640
0.00968750 27.3505
0.0100000 26.9565
0.0103125 26.5806
0.0106250 26.2214
0.0109375 25.8777
0.0112500 25.5485
0.0115625 25.2328
0.0118750 24.9296
0.0121875 24.6382
0.0125000 24.3578
0.0128125 24.0877
0.0131250 23.8274
0.0134375 23.5762
0.0137500 23.3336
0.0143750 22.8724
0.0150000 22.4404
0.0156250 22.0346
0.0162500 21.6525
0.0168750 21.2918
0.0175000 20.9507
0.0181250 20.6273
0.0187500 20.3203
0.0193750 20.0283
0.0200000 19.7501
0.0206625 19.4691
0.0213250 19.2013
0.0219875 18.9458
0.0226500 18.7015
0.0233125 18.4678
0.0239750 18.2438
0.0246375 18.0289
0.0253000 17.8226
0.0264578 17.4808
0.0276156 17.1607
0.0287734 16.8602
0.0299313 16.5773
0.0310891 16.3104
0.0322469 16.0581
0.0334047 15.8189
0.0345625 15.5919
0.0355274 15.4113
0.0364922 15.2379
0.0374570 15.0712
0.0384219 14.9108
0.0393867 14.7564
0.0403516 14.6075
0.0413164 14.4639
0.0422813 14.3253
0.0442109 14.0617
0.0461406 13.8148
0.0480703 13.5829
0.0500000 13.3647
0.0515625 13.1970
0.0531250 13.0368
0.0546875 12.8835
0.0562500 12.7366
0.0578125 12.5958
0.0593750 12.4606
0.0609375 12.3306
0.0625000 12.2055
0.0640625 12.0851
0.0656250 11.9690
0.0671875 11.8569
0.0687500 11.7488
0.0718750 11.5431
0.0750000 11.3503
0.0781250 11.1693
0.0812500 10.9988
0.0843750 10.8378
0.0875000 10.6855
0.0906250 10.5412
0.0937500 10.4042
0.0968750 10.2738
0.100000 10.1496
0.103125 10.0311
0.106250 9.91792
0.109375 9.80959
0.112500 9.70581
0.115625 9.60628
0.118750 9.51072
0.121875 9.41887
0.125000 9.33049
0.128125 9.24538
0.131250 9.16334
0.134375 9.08419
0.137500 9.00775
0.143750 8.86242
0.150000 8.72624
0.156250 8.59829
0.162500 8.47777
0.168750 8.36400
0.175000 8.25640
0.181250 8.15442
0.187500 8.05761
0.193750 7.96554
0.200000 7.87784
0.209375 7.75372
0.218750 7.63763
0.228125 7.52875
0.237500 7.42637
0.246875 7.32988
0.256250 7.23874
0.265625 7.15248
0.275000 7.07067
0.284375 6.99294
0.293750 6.91897
0.303125 6.84846
0.312500 6.78115
0.321875 6.71681
0.331250 6.65522
0.340625 6.59619
0.350000 6.53956
0.359375 6.48516
0.368750 6.43285
0.378125 6.38252
0.387500 6.33404
0.396875 6.28732
0.406250 6.24223
0.425000 6.15655
0.443750 6.07631
0.462500 6.00098
0.500000 5.86343
0.531250 5.76013
0.562500 5.66540
0.593750 5.57824
0.625000 5.49771
0.687500 5.35349
0.750000 5.22775
0.812500 5.11685
0.875000 5.01837
0.937500 4.92991
1.00000 4.84963
1.06250 4.77657
1.12500 4.70972
1.18750 4.64824
1.25000 4.59145
1.37500 4.48978
1.50000 4.40118
1.62500 4.32308
1.75000 4.25375
1.87500 4.19151
2.00000 4.13498
2.18750 4.05960
2.37500 3.99350
2.56250 3.93489
2.75000 3.88259
2.93750 3.83545
3.12500 3.79257
3.31250 3.75345
3.50000 3.71758
3.87500 3.65400
4.25000 3.59925
4.62500 3.55150
5.00000 3.50947
5.31250 3.47804
5.62500 3.44932
5.93750 3.42301
6.25000 3.39880
6.87500 3.35571
7.50000 3.31848
8.12500 3.28594
8.75000 3.25729
9.37500 3.23184
10.0000 3.20902
10.6250 3.18849
11.2500 3.16992
11.8750 3.15306
12.5000 3.13768
13.7500 3.11071
15.0000 3.08788
16.2500 3.06838
17.5000 3.05162
18.7500 3.03712
20.0000 3.02449
21.8750 3.00852
23.7500 2.99547
25.6250 2.98479
27.5000 2.97609
29.3750 2.96902
31.2500 2.96333
33.1250 2.95883
35.0000 2.95535
36.8750 2.95276
38.7500 2.95096
42.5000 2.94934
46.2500 2.94991
50.0000 2.95225
53.1250 2.95532
56.2500 2.95923
59.3750 2.96388
62.5000 2.96918
68.7500 2.98137
75.0000 2.99531
81.2500 3.01064
87.5000 3.02708
93.7500 3.04442
100.000 3.06251
106.250 3.08121
112.500 3.10044
118.750 3.12010
125.000 3.14014
131.250 3.16049
137.500 3.18112
150.000 3.22305
162.500 3.26569
175.000 3.30887
187.500 3.35247
200.000 3.39638
218.750 3.46271
237.500 3.52945
256.250 3.59649
275.000 3.66377
293.750 3.73124
312.500 3.79888
331.250 3.86669
350.000 3.93465
368.750 4.00279
387.500 4.07111
406.250 4.13963
425.000 4.20836
462.500 4.34656
500.000 4.48588
531.250 4.60296
562.500 4.72105
593.750 4.84026
625.000 4.96069
656.250 5.08245
687.500 5.20564
750.000 5.45674
812.500 5.71480
875.000 5.98063
937.500 6.25504
999.999 6.53877
1003.91 6.55682
1007.81 6.57492
1022.95 6.64553
1038.09 6.71684
1068.36 6.86128
1128.91 7.15745
1189.45 7.46480
1250.00 7.78421
1375.00 8.48556
1500.00 9.24983
1625.00 10.0860
1687.50 10.5342
1750.00 11.0044
1812.50 11.4980
1875.00 12.0166
1937.50 12.5621
2000.00 13.1363
2122.01 14.3556
2183.01 15.0044
2244.01 15.7005
2366.02 17.1984
2427.02 18.0158
2488.02 18.8849
2549.03 19.7949
2610.03 20.7624
2671.03 21.8020
2732.03 22.8937
2793.04 24.0481
2854.04 25.3033
2884.54 25.9360
2915.04 26.6251
2976.04 28.0165
3048.14 29.8233
3120.23 31.7760
3156.28 32.7801
3192.33 33.8560
3264.42 36.1499
3336.52 38.6360
3408.61 41.3569
3480.70 44.3294
3552.80 47.5694
3613.80 50.5782
3674.80 53.8203
3735.81 57.3347
3796.81 61.1705
3857.81 65.3177
3918.81 69.8591
3979.82 74.8113
4040.82 80.1916
4101.82 86.1360
4132.32 89.2768
4162.83 92.6130
4223.83 99.7155
4284.83 107.561
4345.83 116.129
4406.84 125.613
4437.34 130.666
4467.84 136.050
4528.84 147.474
4587.74 159.718
4617.18 166.185
4646.63 173.085
4705.53 187.650
4764.42 203.705
4793.87 212.158
4823.32 221.117
4882.21 239.903
4941.11 260.267
5000.00 281.884
5057.41 304.189
5114.82 327.391
5229.64 374.852
5287.05 397.942
5344.46 419.605
5401.87 438.982
5430.57 447.572
5444.93 451.544
5452.10 453.446
5453.00 453.683
5453.90 453.930
5454.34 454.064
5454.79 454.209
5455.24 454.373
5455.47 454.465
5455.69 454.565
5455.91 454.676
5456.14 454.797
5456.36 454.933
5456.59 455.083
5456.81 455.252
5457.04 455.439
5457.26 455.647
5457.48 455.877
5457.71 456.132
5457.93 456.409
5458.16 456.711
5458.38 457.036
5458.61 457.385
5458.83 457.752
5459.05 458.136
5459.28 458.534
5459.81 459.507
5460.08 459.986
5460.35 460.445
5460.62 460.872
5460.89 461.255
5461.15 461.583
5461.42 461.846
5461.60 461.987
5461.79 462.092
5461.89 462.136
5461.94 462.152
5461.97 462.160
5461.98 462.163
5461.99 462.167
5462.00 462.169
5462.01 462.172
5462.03 462.174
5462.04 462.178
5462.07 462.183
5462.13 462.192
5462.18 462.196
5462.19 462.196
5462.23 462.197
5462.32 462.193
5462.40 462.181
5462.56 462.138
5462.81 462.025
5463.05 461.859
5463.29 461.646
5463.53 461.395
5463.78 461.111
5464.02 460.808
5464.50 460.168
5464.81 459.761
5465.12 459.375
5465.43 459.018
5465.74 458.702
5466.06 458.429
5466.37 458.203
5466.68 458.021
5466.99 457.884
5467.21 457.809
5467.43 457.754
5467.66 457.715
5467.88 457.692
5468.10 457.681
5468.33 457.683
5468.77 457.713
5469.22 457.771
5469.67 457.847
5470.11 457.935
5470.56 458.030
5472.34 458.436
5474.13 458.847
5481.27 460.465
5495.55 463.471
5524.12 468.516
5552.69 472.654
5581.26 475.722
5621.00 477.652
5657.64 477.000
5694.28 474.492
5730.91 470.259
5767.55 464.306
5804.19 456.264
5840.83 446.926
5877.46 436.478
5914.10 425.018
5987.38 399.528
6060.65 372.441
6133.93 345.089
6207.20 318.214
6271.27 295.828
6303.31 284.995
6335.34 274.635
6399.41 254.750
6463.48 236.435
6495.51 227.732
6527.55 219.488
6591.62 203.932
6623.65 196.649
6655.69 189.736
6719.76 176.677
6782.06 165.169
6813.21 159.721
6844.36 154.579
6906.66 144.878
6968.95 136.038
7031.25 127.882
7093.55 120.435
7124.70 116.918
7155.85 113.588
7218.15 107.257
7280.45 101.472
7342.75 96.1078
7405.05 91.1491
7467.34 86.5818
7529.64 82.3256
7591.94 78.3927
7654.24 74.7355
7716.54 71.3170
7764.68 68.8458
7812.82 66.5045
7860.96 64.2835
7909.10 62.1743
7957.24 60.1830
8005.38 58.2898
8053.52 56.4654
8101.66 54.7396
8197.94 51.5151
8294.22 48.5781
8390.50 45.8960
8486.78 43.4425
8578.81 41.2891
8670.84 39.3012
8762.88 37.4619
8854.91 35.7568
8946.94 34.1729
9038.97 32.6989
9131.00 31.3225
9177.02 30.6689
9200.03 30.3509
9223.04 30.0380
9238.61 29.8296
9246.40 29.7264
9254.19 29.6239
9261.97 29.5224
9269.76 29.4221
9273.66 29.3726
9277.55 29.3239
9281.44 29.2764
9283.39 29.2534
9285.34 29.2313
9286.75 29.2160
9288.17 29.2016
9289.45 29.1899
9290.73 29.1802
9292.02 29.1738
9292.66 29.1725
9293.30 29.1732
9293.94 29.1764
9294.58 29.1829
9295.23 29.1938
9295.87 29.2102
9296.51 29.2333
9297.15 29.2641
9297.79 29.3038
9298.43 29.3523
9298.85 29.3888
9299.27 29.4285
9300.11 29.5149
9300.96 29.6039
9301.38 29.6460
9301.80 29.6847
9302.32 29.7259
9302.85 29.7565
9303.37 29.7745
9303.63 29.7782
9303.90 29.7782
9304.00 29.7771
9304.25 29.7722
9304.50 29.7639
9305.01 29.7372
9305.51 29.6984
9306.02 29.6494
9306.40 29.6066
9306.78 29.5604
9307.54 29.4617
9308.30 29.3618
9309.07 29.2676
9309.62 29.2057
9310.17 29.1500
9310.72 29.1010
9311.27 29.0584
9311.82 29.0219
9312.37 28.9908
9312.92 28.9642
9313.47 28.9415
9314.03 28.9219
9314.58 28.9048
9315.68 28.8762
9316.78 28.8524
9317.88 28.8316
9318.90 28.8141
9319.92 28.7977
9321.95 28.7670
9323.81 28.7404
9325.68 28.7146
9329.41 28.6648
9333.14 28.6163
9336.87 28.5687
9344.33 28.4746
9351.78 28.3818
9359.24 28.2898
9366.70 28.1985
9381.62 28.0175
9400.94 27.7864
9420.27 27.5582
9458.92 27.1124
9536.21 26.2573
9613.51 25.4415
9690.81 24.6656
9768.11 23.9272
9845.41 23.2237
9922.70 22.5531
10000.0 21.9139
10092.7 21.1952
10185.4 20.5068
10278.1 19.8477
10370.8 19.2332
10556.3 18.0834
10649.0 17.5528
10741.7 17.0485
10834.4 16.5629
10927.1 16.1012
11112.5 15.2419
11205.2 14.8372
11297.9 14.4551
11483.3 13.7288
11668.7 13.0667
11761.5 12.7513
11854.2 12.4521
12039.6 11.8830
12225.0 11.3575
12410.4 10.8662
12595.8 10.4103
12781.2 9.98430
12966.6 9.58388
13118.3 9.27666
13270.0 8.98478
13421.7 8.70700
13573.4 8.44473
13725.1 8.19173
13876.8 7.95212
14028.5 7.71919
14180.2 7.50205
14331.9 7.28862
14483.6 7.08922
14635.3 6.89451
14787.0 6.70917
15090.4 6.35804
15393.8 6.03261
15680.4 5.74755
15966.9 5.48064
16253.5 5.22992
16540.0 4.99381
16826.6 4.77087
17113.1 4.55897
17399.7 4.35879
17543.0 4.26253
17686.2 4.16875
17753.6 4.12550
17871.6 4.05122
17989.6 3.97884
18107.6 3.90874
18166.6 3.87495
18225.6 3.84239
18263.5 3.82244
18301.5 3.80362
18339.4 3.78645
18377.3 3.77195
18400.5 3.76515
18423.7 3.76085
18446.8 3.76032
18470.0 3.76587
18483.7 3.77361
18497.4 3.78634
18511.1 3.80669
18524.8 3.83864
18533.2 3.86705
18541.7 3.90522
18550.1 3.95730
18558.5 4.03025
18564.0 4.09490
18569.6 4.17838
18575.1 4.28851
18577.9 4.35723
18580.6 4.43742
18583.5 4.53737
18586.4 4.65723
18589.3 4.80363
18592.2 4.98362
18593.7 5.09017
18595.1 5.20997
18596.6 5.34533
18598.0 5.49907
18599.5 5.67472
18600.9 5.87671
18602.4 6.11069
18603.8 6.38191
18604.6 6.55267
18605.4 6.73777
18606.2 6.94151
18607.0 7.16657
18607.8 7.41617
18608.6 7.69416
18609.3 8.00525
18610.1 8.35518
18610.9 8.71923
18611.6 9.12355
18612.3 9.58791
18613.0 10.1101
18613.4 10.4073
18613.8 10.7180
18614.1 11.0519
18614.5 11.4115
18614.8 11.7996
18615.2 12.2193
18615.6 12.6739
18615.9 13.1673
18616.2 13.6112
18616.5 14.0879
18616.8 14.6002
18617.1 15.1325
18617.4 15.7249
18617.7 16.3415
18618.0 17.0289
18618.3 17.7455
18618.6 18.5452
18618.9 19.4095
18619.2 20.3438
18619.5 21.3188
18619.8 22.4077
18620.1 23.5437
18620.4 24.8115
18620.7 26.1326
18621.0 27.9645
18621.4 29.9155
18621.8 32.0446
18622.1 34.3629
18622.5 36.9536
18622.8 39.6864
18623.2 42.6364
18623.6 45.8096
18623.9 49.3075
18624.3 52.9422
18624.7 56.8030
18625.0 60.8843
18625.4 65.1763
18625.7 69.6654
18626.1 74.3333
18626.5 79.1568
18627.0 86.4818
18627.5 93.9761
18628.6 108.806
18629.3 118.459
18629.6 122.975
18630.0 127.214
18630.6 133.329
18630.9 136.003
18631.2 138.312
18631.4 140.403
18631.7 142.113
18632.0 143.549
18632.3 144.600
18632.7 145.454
18633.0 145.736
18633.3 145.545
18633.6 144.983
18633.9 144.054
18634.2 142.767
18634.5 141.072
18634.8 139.097
18635.1 136.808
18635.3 134.226
18635.8 130.013
18636.2 125.305
18636.6 120.182
18637.0 114.861
18637.8 104.145
18638.6 93.0876
18639.3 83.5351
18639.9 74.4672
18640.3 70.0602
18640.6 65.9336
18640.9 61.8529
18641.3 58.0695
18641.7 53.8344
18642.0 49.8629
18642.4 46.1582
18642.8 42.7194
18643.2 39.5416
18643.6 36.6171
18644.0 33.9354
18644.4 31.5446
18644.8 29.3054
18645.2 27.2695
18645.5 25.4221
18645.9 23.7483
18646.3 22.2335
18646.7 20.8637
18647.1 19.6254
18647.5 18.5058
18647.9 17.5179
18648.2 16.6439
18648.6 15.8479
18649.0 15.1222
18649.4 14.4596
18649.7 13.8536
18650.1 13.2983
18650.5 12.7887
18650.8 12.3201
18651.2 11.8881
18651.6 11.4893
18651.9 11.1203
18652.3 10.7781
18652.7 10.4602
18653.4 9.88816
18654.2 9.36358
18655.0 8.90539
18655.8 8.50236
18656.5 8.14558
18657.3 7.82792
18658.1 7.54363
18658.9 7.28801
18659.7 7.06000
18660.6 6.79741
18661.6 6.56428
18662.6 6.35623
18663.6 6.16968
18664.6 6.00170
18665.6 5.84984
18666.6 5.71205
18667.6 5.58659
18669.1 5.41048
18670.7 5.25673
18672.3 5.12166
18673.8 5.00301
18675.4 4.89690
18676.9 4.80275
18680.0 4.64172
18682.2 4.54891
18684.3 4.46792
18688.5 4.33307
18692.8 4.22583
18697.0 4.13891
18703.2 4.03807
18709.4 3.96033
18715.7 3.89871
18721.9 3.84902
18733.2 3.77972
18744.5 3.72851
18755.8 3.68908
18767.2 3.65769
18786.4 3.61638
18805.6 3.58481
18824.9 3.55917
18844.1 3.53752
18873.5 3.50943
18902.9 3.48531
18932.4 3.46385
18961.8 3.44423
18991.2 3.42622
19020.6 3.40976
19050.1 3.39520
19064.8 3.38890
19079.5 3.38362
19096.5 3.37937
19104.9 3.37834
19113.4 3.37831
19121.9 3.37966
19130.4 3.38308
19138.9 3.38944
19147.4 3.40028
19155.3 3.41680
19159.2 3.42850
19163.2 3.44348
19167.2 3.46293
19171.1 3.48857
19175.1 3.52292
19179.0 3.57004
19182.7 3.63116
19184.6 3.67080
19186.4 3.71878
19188.2 3.77762
19190.1 3.85094
19191.9 3.94407
19193.8 4.06534
19194.7 4.14053
19195.6 4.22863
19196.5 4.33317
19197.4 4.45907
19198.4 4.61331
19198.8 4.70403
19199.3 4.80591
19199.7 4.92089
19200.2 5.05132
19200.7 5.19996
19201.1 5.37014
19201.4 5.50326
19201.8 5.65017
19202.1 5.81253
19202.4 5.98630
19202.7 6.18464
19203.0 6.40446
19203.4 6.64816
19203.7 6.90948
19204.0 7.20799
19204.3 7.53867
19204.6 7.90466
19204.9 8.29597
19205.3 8.74115
19205.6 9.23168
19205.9 9.77105
19206.2 10.3434
19206.6 11.1379
19207.0 12.0207
19207.4 12.9969
19207.8 14.0710
19208.2 15.2459
19208.5 16.5236
19208.9 17.9040
19209.3 19.3854
19209.8 21.4253
19210.3 23.5646
19210.8 25.8693
19211.3 28.2195
19212.9 35.8291
19213.2 37.6682
19213.6 39.4265
19214.0 41.0775
19214.4 42.5954
19214.8 43.9226
19215.2 45.0506
19215.5 46.0216
19215.9 46.7693
19216.2 47.1978
19216.5 47.4946
19216.7 47.6746
19217.0 47.7362
19217.4 47.6333
19217.7 47.3206
19218.1 46.8031
19218.4 46.1112
19218.7 45.4305
19219.0 44.6732
19219.3 43.8234
19219.5 42.8880
19220.1 40.8328
19220.6 38.5394
19221.2 35.6423
19221.8 32.6632
19222.9 27.5066
19223.4 24.9979
19223.9 22.6520
19224.2 21.3203
19224.5 20.0446
19224.8 18.8284
19225.2 17.6745
19225.5 16.5845
19225.8 15.5594
19226.1 14.5992
19226.4 13.7032
19226.7 12.9743
19226.9 12.3165
19227.2 11.7007
19227.4 11.1255
19227.7 10.5694
19228.0 10.0720
19228.2 9.61011
19228.5 9.18186
19228.8 8.77078
19229.0 8.40538
19229.3 8.06799
19229.5 7.75678
19229.8 7.46997
19230.1 7.20582
19230.3 6.96267
19230.6 6.73894
19231.0 6.42195
19231.4 6.14400
19231.8 5.90011
19232.2 5.69072
19232.6 5.50149
19233.0 5.33834
19233.4 5.19011
19233.8 5.06154
19234.2 4.94394
19234.6 4.84118
19235.5 4.66305
19236.3 4.51679
19237.1 4.39484
19237.7 4.30840
19238.4 4.23250
19239.8 4.10552
19241.1 4.00359
19242.4 3.92067
19243.8 3.85107
19245.1 3.79276
19247.8 3.69969
19250.2 3.63385
19252.7 3.58187
19255.2 3.53998
19257.7 3.50578
19262.6 3.45314
19267.6 3.41492
19272.9 3.38388
19278.3 3.36003
19283.6 3.34110
19289.0 3.32567
19294.3 3.31281
19299.6 3.30180
19310.3 3.28373
19323.3 3.26652
19336.3 3.25250
19349.2 3.24054
19362.2 3.22982
19388.1 3.21088
19414.1 3.19393
19444.6 3.17547
19475.1 3.15791
19536.1 3.12437
19597.2 3.09207
19658.2 3.06049
19743.7 3.01712
19829.1 2.97444
20000.0 2.89067
20287.2 2.75370
20574.3 2.62060
20861.5 2.49049
21148.6 2.36300
21722.9 2.11426
22297.2 1.87138
22807.7 1.65813
23318.2 1.44517
23687.1 1.29026
23871.5 1.21221
23963.8 1.17297
24009.9 1.15330
24032.9 1.14348
24044.5 1.13862
24050.2 1.13625
24056.0 1.13396
24058.0 1.13322
24060.0 1.13253
24062.0 1.13197
24063.0 1.13181
24064.0 1.13184
24064.8 1.13209
24065.2 1.13235
