Ni-62(n,g) ENDFB-8.0
Energy(eV) XS(b)
1.00000E-05 749.479
1.03125E-05 738.036
1.06250E-05 727.101
1.09375E-05 716.639
1.12500E-05 706.615
1.15625E-05 697.001
1.18750E-05 687.769
1.21875E-05 678.894
1.25000E-05 670.354
1.28125E-05 662.129
1.31250E-05 654.199
1.34375E-05 646.547
1.37500E-05 639.158
1.43750E-05 625.108
1.50000E-05 611.947
1.56250E-05 599.583
1.62500E-05 587.939
1.68750E-05 576.949
1.75000E-05 566.553
1.81250E-05 556.699
1.87500E-05 547.342
1.93750E-05 538.441
2.00000E-05 529.961
2.09375E-05 517.961
2.18750E-05 506.740
2.28125E-05 496.218
2.37500E-05 486.326
2.46875E-05 477.003
2.56250E-05 468.196
2.65625E-05 459.859
2.75000E-05 451.953
2.84375E-05 444.440
2.93750E-05 437.291
3.03125E-05 430.475
3.12500E-05 423.969
3.21875E-05 417.749
3.31250E-05 411.795
3.40625E-05 406.089
3.50000E-05 400.613
3.59375E-05 395.353
3.68750E-05 390.295
3.78125E-05 385.427
3.87500E-05 380.736
3.96875E-05 376.212
4.06250E-05 371.846
4.25000E-05 363.551
4.43750E-05 355.787
4.62500E-05 348.501
4.81250E-05 341.644
5.00000E-05 335.177
5.15625E-05 330.060
5.31250E-05 325.170
5.46875E-05 320.491
5.62500E-05 316.008
5.78125E-05 311.708
5.93750E-05 307.580
6.09375E-05 303.611
6.25000E-05 299.792
6.40625E-05 296.113
6.56250E-05 292.567
6.71875E-05 289.145
6.87500E-05 285.840
7.18750E-05 279.557
7.50000E-05 273.671
7.81250E-05 268.142
8.12500E-05 262.935
8.43750E-05 258.019
8.75000E-05 253.370
9.06250E-05 248.963
9.37500E-05 244.779
9.68750E-05 240.798
0.000100000 237.006
0.000103125 233.387
0.000106250 229.930
0.000109375 226.621
0.000112500 223.451
0.000115625 220.411
0.000118750 217.492
0.000121875 214.685
0.000125000 211.985
0.000128125 209.384
0.000131250 206.876
0.000134375 204.456
0.000137500 202.119
0.000143750 197.677
0.000150000 193.515
0.000156250 189.605
0.000162500 185.923
0.000168750 182.447
0.000175000 179.160
0.000181250 176.044
0.000187500 173.085
0.000193750 170.270
0.000200000 167.589
0.000209375 163.794
0.000218750 160.245
0.000228125 156.918
0.000237500 153.790
0.000246875 150.842
0.000256250 148.057
0.000265625 145.420
0.000275000 142.920
0.000284375 140.545
0.000293750 138.284
0.000303125 136.128
0.000312500 134.071
0.000321875 132.104
0.000331250 130.221
0.000340625 128.417
0.000350000 126.685
0.000359375 125.022
0.000368750 123.422
0.000378125 121.883
0.000387500 120.399
0.000396875 118.969
0.000406250 117.588
0.000425000 114.965
0.000443750 112.510
0.000462500 110.206
0.000481250 108.038
0.000500000 105.993
0.000515625 104.374
0.000531250 102.828
0.000546875 101.348
0.000562500 99.9307
0.000578125 98.5710
0.000593750 97.2654
0.000609375 96.0103
0.000625000 94.8026
0.000640625 93.6393
0.000656250 92.5179
0.000671875 91.4357
0.000687500 90.3907
0.000718750 88.4039
0.000750000 86.5426
0.000781250 84.7941
0.000812500 83.1474
0.000843750 81.5931
0.000875000 80.1229
0.000906250 78.7293
0.000937500 77.4061
0.000968750 76.1474
0.00100000 74.9481
0.00103125 73.8038
0.00106250 72.7104
0.00109375 71.6641
0.00112500 70.6618
0.00115625 69.7004
0.00118750 68.7771
0.00121875 67.8896
0.00125000 67.0357
0.00128125 66.2131
0.00131250 65.4201
0.00134375 64.6549
0.00137500 63.9160
0.00143750 62.5111
0.00150000 61.1949
0.00156250 59.9585
0.00162500 58.7942
0.00168750 57.6951
0.00175000 56.6555
0.00181250 55.6701
0.00187500 54.7344
0.00193750 53.8443
0.00200000 52.9963
0.00209375 51.7962
0.00218750 50.6742
0.00228125 49.6220
0.00237500 48.6327
0.00246875 47.7004
0.00256250 46.8197
0.00265625 45.9860
0.00275000 45.1954
0.00284375 44.4441
0.00293750 43.7291
0.00303125 43.0476
0.00312500 42.3970
0.00321875 41.7750
0.00331250 41.1796
0.00340625 40.6089
0.00350000 40.0613
0.00359375 39.5353
0.00368750 39.0295
0.00378125 38.5427
0.00387500 38.0736
0.00396875 37.6212
0.00406250 37.1846
0.00425000 36.3551
0.00443750 35.5787
0.00462500 34.8501
0.00481250 34.1644
0.00500000 33.5177
0.00515625 33.0060
0.00531250 32.5170
0.00546875 32.0491
0.00562500 31.6008
0.00578125 31.1709
0.00593750 30.7580
0.00609375 30.3611
0.00625000 29.9792
0.00640625 29.6113
0.00656250 29.2567
0.00671875 28.9145
0.00687500 28.5840
0.00718750 27.9557
0.00750000 27.3671
0.00781250 26.8142
0.00812500 26.2935
0.00843750 25.8019
0.00875000 25.3370
0.00906250 24.8963
0.00937500 24.4779
0.00968750 24.0798
0.0100000 23.7006
0.0103125 23.3387
0.0106250 22.9929
0.0109375 22.6621
0.0112500 22.3451
0.0115625 22.0411
0.0118750 21.7492
0.0121875 21.4685
0.0125000 21.1985
0.0128125 20.9384
0.0131250 20.6877
0.0134375 20.4457
0.0137500 20.2120
0.0143750 19.7678
0.0150000 19.3516
0.0156250 18.9606
0.0162500 18.5924
0.0168750 18.2449
0.0175000 17.9161
0.0181250 17.6045
0.0187500 17.3085
0.0193750 17.0271
0.0200000 16.7589
0.0206625 16.4880
0.0213250 16.2298
0.0219875 15.9834
0.0226500 15.7479
0.0233125 15.5225
0.0239750 15.3066
0.0246375 15.0994
0.0253000 14.9004
0.0264578 14.5707
0.0276156 14.2620
0.0287734 13.9722
0.0299313 13.6993
0.0310891 13.4419
0.0322469 13.1984
0.0334047 12.9677
0.0345625 12.7487
0.0355274 12.5745
0.0364922 12.4071
0.0374570 12.2463
0.0384219 12.0916
0.0393867 11.9426
0.0403516 11.7989
0.0413164 11.6603
0.0422813 11.5265
0.0442109 11.2721
0.0461406 11.0338
0.0480703 10.8100
0.0500000 10.5993
0.0515625 10.4375
0.0531250 10.2828
0.0546875 10.1348
0.0562500 9.99309
0.0578125 9.85712
0.0593750 9.72657
0.0609375 9.60109
0.0625000 9.48035
0.0640625 9.36406
0.0656250 9.25196
0.0671875 9.14379
0.0687500 9.03934
0.0718750 8.84073
0.0750000 8.65464
0.0781250 8.47981
0.0812500 8.31513
0.0843750 8.15967
0.0875000 8.01261
0.0906250 7.87323
0.0937500 7.74087
0.0968750 7.61497
0.100000 7.49502
0.103125 7.38057
0.106250 7.27120
0.109375 7.16657
0.112500 7.06632
0.115625 6.97017
0.118750 6.87785
0.121875 6.78912
0.125000 6.70374
0.128125 6.62152
0.131250 6.54227
0.134375 6.46581
0.137500 6.39197
0.143750 6.25157
0.150000 6.12000
0.156250 5.99637
0.162500 5.87991
0.168750 5.76998
0.175000 5.66600
0.181250 5.56745
0.187500 5.47390
0.193750 5.38494
0.200000 5.30019
0.209375 5.18025
0.218750 5.06806
0.228125 4.96282
0.237500 4.86387
0.246875 4.77061
0.256250 4.68252
0.265625 4.59914
0.275000 4.52006
0.284375 4.44492
0.293750 4.37342
0.303125 4.30525
0.312500 4.24019
0.321875 4.17798
0.331250 4.11844
0.340625 4.06137
0.350000 4.00662
0.359375 3.95402
0.368750 3.90345
0.378125 3.85478
0.387500 3.80790
0.396875 3.76272
0.406250 3.71913
0.425000 3.63629
0.443750 3.55868
0.462500 3.48581
0.500000 3.35278
0.531250 3.25287
0.562500 3.16122
0.593750 3.07689
0.625000 2.99897
0.687500 2.85940
0.750000 2.73769
0.812500 2.63032
0.875000 2.53495
0.937500 2.44926
1.00000 2.37148
1.06250 2.30067
1.12500 2.23586
1.18750 2.17624
1.25000 2.12116
1.37500 2.02250
1.50000 1.93646
1.62500 1.86056
1.75000 1.79313
1.87500 1.73256
2.00000 1.67751
2.18750 1.60402
2.37500 1.53950
2.56250 1.48221
2.75000 1.43100
2.93750 1.38478
3.12500 1.34267
3.31250 1.30420
3.50000 1.26887
3.87500 1.20607
4.25000 1.15179
4.62500 1.10427
5.00000 1.06226
5.31250 1.03072
5.62500 1.00180
5.93750 0.975198
6.25000 0.950623
6.87500 0.906611
7.50000 0.868235
8.12500 0.834388
8.75000 0.804284
9.37500 0.777252
10.0000 0.752762
10.6250 0.730474
11.2500 0.710076
11.8750 0.691317
12.5000 0.673988
13.7500 0.642960
15.0000 0.615913
16.2500 0.592064
17.5000 0.570851
18.7500 0.551807
20.0000 0.534560
21.8750 0.511538
23.7500 0.491325
25.6250 0.473389
27.5000 0.457346
29.3750 0.442877
31.2500 0.429731
33.1250 0.417728
35.0000 0.406712
38.7500 0.387157
42.5000 0.370282
46.2500 0.355530
50.0000 0.342499
53.1250 0.332728
56.2500 0.323792
59.3750 0.315584
62.5000 0.308011
68.7500 0.294477
75.0000 0.282710
81.2500 0.272361
87.5000 0.263177
93.7500 0.254954
100.000 0.247535
106.250 0.240804
112.500 0.234664
125.000 0.223852
137.500 0.214617
150.000 0.206622
162.500 0.199622
175.000 0.193438
187.500 0.187928
200.000 0.182982
218.750 0.176445
237.500 0.170777
256.250 0.165814
275.000 0.161435
293.750 0.157544
312.500 0.154065
331.250 0.150940
350.000 0.148121
387.500 0.143252
425.000 0.139216
462.500 0.135845
500.000 0.133013
531.250 0.130998
562.500 0.129251
625.000 0.126433
687.500 0.124355
750.000 0.122876
812.500 0.121897
875.000 0.121344
937.500 0.121164
1000.00 0.121316
1062.50 0.121770
1125.00 0.122505
1187.50 0.123504
1250.00 0.124757
1312.50 0.126254
1375.00 0.127994
1437.50 0.129973
1500.00 0.132194
1562.50 0.134660
1625.00 0.137376
1687.50 0.140351
1750.00 0.143593
1812.50 0.147115
1875.00 0.150931
1937.50 0.155056
2000.00 0.159507
2068.70 0.164828
2137.39 0.170568
2206.08 0.176790
2274.78 0.183565
2343.47 0.190864
2412.17 0.198814
2446.51 0.203005
2480.86 0.207427
2549.55 0.216716
2618.25 0.226888
2652.60 0.232229
2686.94 0.237868
2755.64 0.249785
2824.33 0.262795
2893.03 0.276848
2961.72 0.292201
2996.07 0.300311
3030.41 0.308883
3099.11 0.326915
3168.91 0.347022
3203.81 0.357607
3238.71 0.368745
3308.52 0.392357
3343.42 0.404864
3378.32 0.417976
3448.12 0.445471
3517.93 0.475252
3552.83 0.490772
3587.73 0.506924
3657.53 0.540479
3745.78 0.585431
3834.03 0.631997
4010.52 0.724640
4098.77 0.765760
4142.89 0.784075
4187.01 0.800539
4231.14 0.813755
4275.26 0.824264
4319.38 0.831964
4363.51 0.836610
4422.34 0.836558
4481.17 0.830024
4540.00 0.817185
4597.50 0.798980
4655.00 0.775841
4712.50 0.748577
4770.00 0.718084
4827.50 0.685274
4885.00 0.651018
5000.00 0.581188
5080.25 0.533622
5160.50 0.488128
5240.75 0.445309
5321.00 0.406052
5361.13 0.387402
5401.26 0.369953
5481.51 0.336975
5521.63 0.321875
5561.76 0.307469
5601.88 0.293714
5642.01 0.280614
5715.67 0.258581
5752.50 0.248204
5789.32 0.238482
5862.98 0.220254
5936.64 0.203829
6010.30 0.188824
6083.95 0.175280
6120.78 0.168929
6157.61 0.162963
6231.27 0.151687
6304.93 0.141515
6341.75 0.136705
6378.58 0.132175
6452.24 0.123634
6525.90 0.115857
6599.56 0.108680
6673.21 0.102123
6746.87 0.0960879
6820.53 0.0905000
6870.75 0.0869599
6920.97 0.0836085
6971.19 0.0804311
7021.41 0.0774164
7121.85 0.0718350
7172.07 0.0692500
7222.30 0.0668240
7322.74 0.0622436
7423.18 0.0580857
7523.62 0.0543025
7624.06 0.0508557
7764.68 0.0465580
7834.99 0.0445604
7905.30 0.0427285
7975.61 0.0409720
8045.92 0.0393046
8186.54 0.0362832
8256.85 0.0348807
8327.16 0.0335756
8397.47 0.0323212
8467.78 0.0311360
8608.40 0.0289716
8678.70 0.0279866
8749.01 0.0270863
8789.19 0.0266731
8809.28 0.0265285
8829.37 0.0264596
8845.27 0.0265568
8853.22 0.0267128
8861.17 0.0270073
8869.13 0.0275614
8877.08 0.0286291
8881.05 0.0295711
8885.03 0.0310697
8889.01 0.0336017
8890.99 0.0355579
8892.98 0.0383223
8894.45 0.0412003
8895.91 0.0452589
8897.38 0.0514227
8898.11 0.0559801
8898.84 0.0624221
8899.57 0.0722958
8899.94 0.0793630
8900.30 0.0885860
8900.67 0.100803
8901.04 0.117018
8901.40 0.138654
8901.77 0.167496
8902.14 0.205885
8902.50 0.256313
8902.87 0.322032
8903.05 0.361734
8903.23 0.406630
8903.42 0.457217
8903.60 0.513999
8903.78 0.577479
8903.97 0.648155
8904.15 0.726502
8904.33 0.812968
8904.52 0.907955
8904.70 1.01181
8904.90 1.13384
8905.09 1.26599
8905.29 1.40895
8905.48 1.56267
8905.68 1.72778
8905.88 1.90217
8906.07 2.08605
8906.27 2.27857
8906.47 2.47972
8906.66 2.68618
8907.05 3.11187
8907.45 3.54240
8907.84 3.96094
8908.09 4.21221
8908.33 4.44550
8908.58 4.65797
8908.83 4.84349
8909.09 5.00679
8909.36 5.13254
8909.50 5.18448
8909.64 5.22348
8909.90 5.26088
8910.00 5.26436
8910.02 5.26425
8910.08 5.26251
8910.13 5.25868
8910.25 5.24494
8910.47 5.19439
8910.64 5.13426
8910.81 5.05705
8911.01 4.94461
8911.21 4.81146
8911.37 4.69474
8911.52 4.56824
8911.65 4.45930
8911.88 4.24087
8912.12 4.00789
8912.35 3.76342
8912.58 3.51139
8913.05 2.99971
8913.28 2.74698
8913.51 2.50039
8913.69 2.31675
8913.87 2.13925
8914.05 1.96873
8914.23 1.80676
8914.41 1.65207
8914.59 1.50599
8914.77 1.36876
8914.94 1.24121
8915.12 1.12193
8915.30 1.01157
8915.48 0.909952
8915.66 0.817312
8915.84 0.732291
8916.02 0.655058
8916.20 0.585199
8916.37 0.522603
8916.55 0.466108
8916.73 0.415613
8916.91 0.370646
8917.09 0.330953
8917.45 0.264497
8917.80 0.213242
8918.16 0.173886
8918.52 0.144070
8918.88 0.121520
8919.23 0.104498
8919.58 0.0920947
8919.92 0.0825525
8920.26 0.0751453
8920.60 0.0693244
8921.29 0.0609119
8921.97 0.0551807
8923.34 0.0477758
8924.70 0.0430504
8926.07 0.0397141
8927.44 0.0372392
8930.18 0.0338625
8933.53 0.0313107
8936.89 0.0296619
8940.25 0.0285427
8943.60 0.0277645
8950.32 0.0266997
8957.03 0.0260248
8970.46 0.0252310
8983.89 0.0247620
9010.75 0.0241872
9037.60 0.0237736
9085.35 0.0232114
9133.09 0.0227656
9180.84 0.0223855
9228.58 0.0221575
9258.43 0.0221601
9273.35 0.0222382
9288.27 0.0223988
9303.19 0.0226733
9318.11 0.0231575
9333.03 0.0239945
9340.49 0.0246343
9347.95 0.0255089
9356.90 0.0270089
9361.38 0.0280482
9365.85 0.0293811
9370.33 0.0311092
9374.81 0.0334001
9379.28 0.0365222
9383.76 0.0409147
9386.24 0.0441477
9388.73 0.0481957
9391.22 0.0534080
9393.70 0.0602781
9396.19 0.0695597
9397.43 0.0754643
9398.68 0.0825094
9399.92 0.0910328
9401.16 0.101485
9402.41 0.114537
9403.65 0.131175
9404.58 0.146924
9405.52 0.166579
9406.45 0.191815
9406.92 0.207361
9407.38 0.225597
9407.85 0.247423
9408.31 0.273990
9408.78 0.307178
9409.25 0.349696
9409.71 0.405656
9409.95 0.440290
9410.18 0.480581
9410.41 0.527629
9410.65 0.582728
9410.88 0.647389
9411.11 0.723366
9411.33 0.806477
9411.55 0.903125
9411.77 1.01540
9411.98 1.14499
9412.20 1.29562
9412.42 1.46866
9412.64 1.66865
9412.85 1.89689
9413.07 2.15874
9413.18 2.30296
9413.29 2.45661
9413.40 2.62011
9413.51 2.79388
9413.62 2.97835
9413.72 3.17208
9413.83 3.37904
9413.94 3.59788
9414.05 3.82896
9414.16 4.07033
9414.27 4.32676
9414.38 4.59637
9414.49 4.87941
9414.59 5.17331
9414.72 5.53042
9414.84 5.90280
9414.97 6.29657
9415.09 6.70541
9415.22 7.13584
9415.34 7.58076
9415.46 8.04322
9415.59 8.52279
9415.84 9.53507
9416.09 10.6034
9416.33 11.7281
9416.58 12.8897
9417.17 15.7468
9417.47 17.1687
9417.76 18.5478
9418.11 20.0504
9418.28 20.7481
9418.45 21.4017
9418.65 22.1090
9418.85 22.7373
9419.02 23.2013
9419.19 23.5983
9419.36 23.9243
9419.53 24.1749
9419.71 24.3567
9419.89 24.4525
9420.00 24.4681
9420.01 24.4678
9420.06 24.4636
9420.10 24.4545
9420.18 24.4216
9420.35 24.2970
9420.54 24.0784
9420.72 23.7739
9420.91 23.3565
9421.11 22.8499
9421.30 22.2606
9421.50 21.5995
9421.67 20.9381
9421.85 20.2276
9422.20 18.6915
9422.47 17.4567
9422.74 16.1867
9423.27 13.6162
9423.69 11.6132
9423.90 10.6570
9424.11 9.73824
9424.33 8.85829
9424.54 8.02953
9424.75 7.25072
9424.96 6.52382
9425.11 6.06648
9425.25 5.63592
9425.39 5.22594
9425.53 4.84206
9425.67 4.47846
9425.81 4.13977
9425.95 3.82060
9426.10 3.52477
9426.24 3.24730
9426.38 2.99132
9426.52 2.75231
9426.66 2.53276
9426.80 2.32864
9426.94 2.14189
9427.09 1.96894
9427.23 1.81129
9427.37 1.66580
9427.51 1.53363
9427.65 1.41202
9427.79 1.30187
9428.01 1.15373
9428.22 1.02584
9428.43 0.915097
9428.64 0.819353
9428.86 0.736296
9429.07 0.664952
9429.28 0.603345
9429.49 0.550105
9429.77 0.490012
9430.06 0.440266
9430.34 0.398863
9430.62 0.364174
9430.91 0.334881
9431.19 0.309931
9431.76 0.269874
9432.32 0.239176
9432.89 0.214828
9433.45 0.194951
9434.02 0.178345
9434.59 0.164224
9435.15 0.152053
9436.28 0.132136
9437.42 0.116558
9438.55 0.104094
9439.68 0.0939439
9440.81 0.0855590
9441.94 0.0785466
9443.08 0.0726169
9445.34 0.0631828
9447.60 0.0560587
9449.87 0.0505376
9452.13 0.0461770
9454.40 0.0426820
9456.66 0.0398449
9460.62 0.0359804
9464.58 0.0330744
9468.54 0.0308493
9472.51 0.0291095
9476.47 0.0277214
9480.43 0.0265943
9488.35 0.0248894
9496.28 0.0236946
9504.20 0.0227815
9512.13 0.0220789
9520.05 0.0215239
9530.52 0.0209467
9540.99 0.0204931
9561.93 0.0198254
9582.87 0.0193299
9603.81 0.0189484
9645.70 0.0183591
9687.58 0.0178917
9771.34 0.0171310
9855.11 0.0164757
9927.56 0.0159634
10000.0 0.0154839
10165.2 0.0144867
10247.8 0.0140195
10330.4 0.0135820
10495.6 0.0127587
10660.8 0.0120101
10826.0 0.0113188
10991.2 0.0106857
11156.4 0.0101015
11321.6 0.00955877
11464.3 0.00912579
11607.0 0.00871960
11892.3 0.00798089
12177.7 0.00732461
12463.0 0.00674628
12605.7 0.00647871
12748.3 0.00622899
12891.0 0.00598676
13033.7 0.00576484
13176.4 0.00554993
13319.0 0.00534708
13604.4 0.00497018
13934.8 0.00458353
14100.0 0.00440308
14265.2 0.00423557
14595.6 0.00392367
14926.0 0.00364522
15256.4 0.00339240
15586.8 0.00316544
15917.2 0.00296007
16247.6 0.00277321
16502.9 0.00264308
16758.2 0.00252565
17013.5 0.00242523
17141.2 0.00238866
17268.8 0.00236943
17347.7 0.00238295
17426.5 0.00244446
17465.9 0.00251766
17505.4 0.00265021
17544.8 0.00292078
17564.5 0.00316924
17584.2 0.00357558
17599.2 0.00407734
17606.7 0.00443551
17614.2 0.00491526
17621.8 0.00556663
17629.3 0.00648127
17636.8 0.00779916
17640.5 0.00869798
17644.3 0.00984254
17648.0 0.0113297
17651.8 0.0132929
17655.5 0.0159590
17659.3 0.0197132
17661.4 0.0225753
17663.5 0.0262119
17665.6 0.0309620
17667.7 0.0373487
17669.9 0.0463431
17670.9 0.0523307
17672.0 0.0597432
17673.0 0.0694220
17674.1 0.0824153
17674.6 0.0909165
17675.1 0.101274
17675.7 0.114095
17676.2 0.129860
17676.6 0.146424
17677.1 0.166782
17677.5 0.191928
17678.0 0.223072
17678.4 0.261674
17678.8 0.309462
17679.3 0.368438
17679.7 0.440875
17680.2 0.529287
17680.6 0.636380
17681.0 0.764962
17681.5 0.917830
17681.9 1.09762
17682.4 1.30660
17682.8 1.54651
17683.2 1.81826
17683.6 2.08571
17684.0 2.36948
17684.4 2.67454
17684.8 2.99844
17685.1 3.33786
17685.5 3.68860
17686.3 4.40311
17686.6 4.73646
17687.0 5.04994
17687.3 5.34740
17687.7 5.62331
17688.1 5.91192
17688.3 6.04281
17688.5 6.15558
17688.8 6.30996
17689.2 6.42988
17689.4 6.50040
17689.7 6.54457
17690.0 6.56658
17690.3 6.55355
17690.5 6.51675
17690.7 6.46502
17690.9 6.39917
17691.2 6.27827
17691.5 6.13307
17691.8 6.00566
17692.0 5.87121
17692.4 5.56890
17692.8 5.25468
17693.2 4.91591
17693.6 4.56024
17693.9 4.20461
17694.7 3.50182
17695.1 3.16552
17695.4 2.84206
17695.8 2.53491
17696.2 2.24677
17696.5 1.97953
17696.9 1.73436
17697.1 1.59333
17697.4 1.46102
17697.6 1.33738
17697.8 1.22223
17698.1 1.11539
17698.3 1.01657
17698.7 0.845270
17699.2 0.697962
17699.7 0.575662
17700.1 0.475154
17700.6 0.394889
17701.0 0.328388
17701.5 0.274927
17701.9 0.232119
17702.4 0.198574
17702.9 0.171093
17703.3 0.149068
17703.8 0.131328
17704.2 0.117221
17704.8 0.102882
17705.4 0.0916861
17706.5 0.0749986
17707.6 0.0632885
17708.7 0.0546301
17709.9 0.0478207
17711.0 0.0423538
17713.3 0.0341244
17715.5 0.0282780
17717.9 0.0236786
17720.3 0.0202110
17722.7 0.0175310
17725.1 0.0154260
17727.5 0.0137277
17729.9 0.0123435
17734.7 0.0102165
17739.5 0.00868562
17744.3 0.00755125
17749.0 0.00668883
17753.8 0.00602410
17759.5 0.00541402
17765.1 0.00492571
17776.4 0.00422206
17787.7 0.00374906
17798.9 0.00341897
17817.0 0.00305943
17835.0 0.00282064
17871.1 0.00253533
17907.2 0.00237527
17943.3 0.00227383
18015.4 0.00215101
18087.6 0.00207702
18207.1 0.00199672
18326.7 0.00193925
18565.7 0.00184573
19043.8 0.00169875
19521.9 0.00157308
20000.0 0.00146161
20383.3 0.00138152
20766.5 0.00130745
21149.8 0.00123914
21533.0 0.00117636
22299.5 0.00106416
23066.0 0.000968264
23518.9 0.000920306
23971.8 0.000886366
24146.0 0.000897149
24233.1 0.000931970
24276.7 0.000972028
24320.2 0.00106313
24345.3 0.00117365
24357.8 0.00126247
24370.3 0.00138965
24382.8 0.00158342
24389.1 0.00172483
24395.4 0.00190870
24401.6 0.00215326
24407.9 0.00249818
24414.1 0.00300298
24417.3 0.00334664
24420.4 0.00377848
24423.4 0.00430612
24426.4 0.00499053
24429.4 0.00591278
24432.4 0.00719289
24433.9 0.00803559
24435.4 0.00906942
24436.9 0.0103656
24438.4 0.0120346
24439.9 0.0143413
24440.6 0.0158796
24441.4 0.0177931
24442.1 0.0203200
24442.9 0.0237273
24443.6 0.0284561
24444.4 0.0350579
24444.9 0.0421602
24445.5 0.0515960
24446.1 0.0641272
24446.7 0.0807075
24447.3 0.102501
24447.8 0.130891
24448.4 0.167472
24449.0 0.213121
24449.6 0.271306
24450.1 0.343239
24450.7 0.430743
24451.3 0.535384
24451.9 0.658280
24452.5 0.799902
24453.0 0.959873
24453.6 1.13361
24454.1 1.29087
24454.6 1.45598
24455.5 1.79516
24456.0 1.96614
24456.5 2.12842
24457.0 2.28486
24457.4 2.42500
24457.8 2.52627
24458.2 2.61263
24458.6 2.68713
24458.9 2.74451
24459.2 2.78027
24459.5 2.80371
24460.0 2.81767
