Ni-61(n,g) ENDFB-8.0
Energy(eV) XS(b)
1.00000E-05 126.191
1.03125E-05 124.264
1.06250E-05 122.423
1.09375E-05 120.662
1.12500E-05 118.974
1.15625E-05 117.355
1.18750E-05 115.801
1.21875E-05 114.306
1.25000E-05 112.869
1.28125E-05 111.484
1.31250E-05 110.148
1.34375E-05 108.860
1.37500E-05 107.616
1.43750E-05 105.250
1.50000E-05 103.034
1.56250E-05 100.953
1.62500E-05 98.9922
1.68750E-05 97.1418
1.75000E-05 95.3913
1.81250E-05 93.7322
1.87500E-05 92.1568
1.93750E-05 90.6582
2.00000E-05 89.2304
2.09375E-05 87.2098
2.18750E-05 85.3206
2.28125E-05 83.5490
2.37500E-05 81.8834
2.46875E-05 80.3136
2.56250E-05 78.8308
2.65625E-05 77.4272
2.75000E-05 76.0959
2.84375E-05 74.8311
2.93750E-05 73.6273
3.03125E-05 72.4798
3.12500E-05 71.3843
3.21875E-05 70.3371
3.31250E-05 69.3346
3.40625E-05 68.3738
3.50000E-05 67.4518
3.59375E-05 66.5662
3.68750E-05 65.7146
3.78125E-05 64.8948
3.87500E-05 64.1050
3.96875E-05 63.3433
4.06250E-05 62.6082
4.25000E-05 61.2116
4.43750E-05 59.9044
4.62500E-05 58.6776
4.81250E-05 57.5231
5.00000E-05 56.4343
5.15625E-05 55.5726
5.31250E-05 54.7493
5.46875E-05 53.9615
5.62500E-05 53.2067
5.78125E-05 52.4828
5.93750E-05 51.7876
6.09375E-05 51.1194
6.25000E-05 50.4763
6.40625E-05 49.8570
6.56250E-05 49.2599
6.71875E-05 48.6837
6.87500E-05 48.1273
7.18750E-05 47.0694
7.50000E-05 46.0784
7.81250E-05 45.1474
8.12500E-05 44.2707
8.43750E-05 43.4431
8.75000E-05 42.6603
9.06250E-05 41.9183
9.37500E-05 41.2138
9.68750E-05 40.5436
0.000100000 39.9051
0.000103125 39.2958
0.000106250 38.7136
0.000109375 38.1565
0.000112500 37.6228
0.000115625 37.1109
0.000118750 36.6194
0.000121875 36.1469
0.000125000 35.6922
0.000128125 35.2542
0.000131250 34.8320
0.000134375 34.4246
0.000137500 34.0311
0.000143750 33.2831
0.000150000 32.5823
0.000156250 31.9240
0.000162500 31.3041
0.000168750 30.7189
0.000175000 30.1654
0.000181250 29.6407
0.000187500 29.1425
0.000193750 28.6686
0.000200000 28.2171
0.000209375 27.5782
0.000218750 26.9808
0.000228125 26.4205
0.000237500 25.8938
0.000246875 25.3974
0.000256250 24.9285
0.000265625 24.4846
0.000275000 24.0637
0.000284375 23.6637
0.000293750 23.2830
0.000303125 22.9201
0.000312500 22.5737
0.000321875 22.2425
0.000331250 21.9255
0.000340625 21.6217
0.000350000 21.3302
0.000359375 21.0501
0.000368750 20.7808
0.000378125 20.5216
0.000387500 20.2718
0.000396875 20.0309
0.000406250 19.7985
0.000425000 19.3568
0.000443750 18.9435
0.000462500 18.5555
0.000481250 18.1904
0.000500000 17.8461
0.000515625 17.5736
0.000531250 17.3133
0.000546875 17.0641
0.000562500 16.8255
0.000578125 16.5965
0.000593750 16.3767
0.000609375 16.1654
0.000625000 15.9620
0.000640625 15.7662
0.000656250 15.5774
0.000671875 15.3952
0.000687500 15.2192
0.000718750 14.8847
0.000750000 14.5713
0.000781250 14.2769
0.000812500 13.9996
0.000843750 13.7379
0.000875000 13.4904
0.000906250 13.2558
0.000937500 13.0330
0.000968750 12.8210
0.00100000 12.6191
0.00103125 12.4264
0.00106250 12.2423
0.00109375 12.0662
0.00112500 11.8974
0.00115625 11.7355
0.00118750 11.5801
0.00121875 11.4307
0.00125000 11.2869
0.00128125 11.1484
0.00131250 11.0149
0.00134375 10.8860
0.00137500 10.7616
0.00143750 10.5251
0.00150000 10.3035
0.00156250 10.0953
0.00162500 9.89924
0.00168750 9.71419
0.00175000 9.53915
0.00181250 9.37323
0.00187500 9.21569
0.00193750 9.06583
0.00200000 8.92305
0.00209375 8.72099
0.00218750 8.53206
0.00228125 8.35490
0.00237500 8.18834
0.00246875 8.03136
0.00256250 7.88307
0.00265625 7.74271
0.00275000 7.60958
0.00284375 7.48310
0.00293750 7.36272
0.00303125 7.24796
0.00312500 7.13841
0.00321875 7.03369
0.00331250 6.93344
0.00340625 6.83735
0.00350000 6.74516
0.00359375 6.65660
0.00368750 6.57143
0.00378125 6.48946
0.00387500 6.41047
0.00396875 6.33430
0.00406250 6.26079
0.00425000 6.12112
0.00443750 5.99041
0.00462500 5.86772
0.00481250 5.75228
0.00500000 5.64339
0.00515625 5.55723
0.00531250 5.47489
0.00546875 5.39611
0.00562500 5.32064
0.00578125 5.24824
0.00593750 5.17873
0.00609375 5.11190
0.00625000 5.04760
0.00640625 4.98566
0.00656250 4.92595
0.00671875 4.86833
0.00687500 4.81269
0.00718750 4.70690
0.00750000 4.60780
0.00781250 4.51470
0.00812500 4.42702
0.00843750 4.34427
0.00875000 4.26598
0.00906250 4.19178
0.00937500 4.12132
0.00968750 4.05430
0.0100000 3.99045
0.0103125 3.92952
0.0106250 3.87130
0.0109375 3.81560
0.0112500 3.76223
0.0115625 3.71104
0.0118750 3.66189
0.0121875 3.61464
0.0125000 3.56917
0.0128125 3.52537
0.0131250 3.48315
0.0134375 3.44241
0.0137500 3.40307
0.0143750 3.32827
0.0150000 3.25819
0.0156250 3.19236
0.0162500 3.13037
0.0168750 3.07185
0.0175000 3.01649
0.0181250 2.96402
0.0187500 2.91419
0.0193750 2.86680
0.0200000 2.82164
0.0206625 2.77603
0.0213250 2.73257
0.0219875 2.69108
0.0226500 2.65142
0.0233125 2.61347
0.0239750 2.57711
0.0246375 2.54222
0.0253000 2.50871
0.0264578 2.45321
0.0276156 2.40123
0.0287734 2.35243
0.0299313 2.30649
0.0310891 2.26314
0.0322469 2.22215
0.0334047 2.18330
0.0345625 2.14643
0.0355274 2.11708
0.0364922 2.08891
0.0374570 2.06183
0.0384219 2.03578
0.0393867 2.01068
0.0403516 1.98650
0.0413164 1.96316
0.0422813 1.94063
0.0442109 1.89779
0.0461406 1.85767
0.0480703 1.81999
0.0500000 1.78451
0.0515625 1.75726
0.0531250 1.73122
0.0546875 1.70630
0.0562500 1.68243
0.0578125 1.65954
0.0593750 1.63756
0.0609375 1.61643
0.0625000 1.59609
0.0640625 1.57651
0.0656250 1.55764
0.0671875 1.53942
0.0687500 1.52183
0.0718750 1.48839
0.0750000 1.45706
0.0781250 1.42762
0.0812500 1.39989
0.0843750 1.37371
0.0875000 1.34895
0.0906250 1.32548
0.0937500 1.30319
0.0968750 1.28199
0.100000 1.26179
0.103125 1.24252
0.106250 1.22410
0.109375 1.20648
0.112500 1.18960
0.115625 1.17341
0.118750 1.15786
0.121875 1.14292
0.125000 1.12854
0.128125 1.11470
0.131250 1.10135
0.134375 1.08847
0.137500 1.07604
0.143750 1.05240
0.150000 1.03024
0.156250 1.00942
0.162500 0.989806
0.168750 0.971293
0.175000 0.953781
0.181250 0.937186
0.187500 0.921430
0.193750 0.906448
0.200000 0.892175
0.209375 0.871974
0.218750 0.853080
0.228125 0.835356
0.237500 0.818691
0.246875 0.802984
0.256250 0.788147
0.265625 0.774103
0.275000 0.760783
0.284375 0.748128
0.293750 0.736084
0.303125 0.724604
0.312500 0.713644
0.321875 0.703166
0.331250 0.693137
0.340625 0.683524
0.350000 0.674301
0.359375 0.665441
0.368750 0.656922
0.378125 0.648723
0.387500 0.640827
0.396875 0.633216
0.406250 0.625873
0.425000 0.611917
0.443750 0.598843
0.462500 0.586567
0.500000 0.564155
0.531250 0.547322
0.562500 0.531880
0.593750 0.517670
0.625000 0.504540
0.687500 0.481022
0.750000 0.460510
0.812500 0.442414
0.875000 0.426339
0.937500 0.411896
1.00000 0.398783
1.06250 0.386846
1.12500 0.375918
1.18750 0.365865
1.25000 0.356577
1.37500 0.339938
1.50000 0.325425
1.62500 0.312620
1.75000 0.301243
1.87500 0.291020
2.00000 0.281730
2.18750 0.269324
2.37500 0.258429
2.56250 0.248752
2.75000 0.240101
2.93750 0.232291
3.12500 0.225174
3.31250 0.218670
3.50000 0.212695
3.87500 0.202072
4.25000 0.192887
4.62500 0.184841
5.00000 0.177725
5.31250 0.172379
5.62500 0.167476
5.93750 0.162965
6.25000 0.158795
6.87500 0.151323
7.50000 0.144803
8.12500 0.139049
8.75000 0.133926
9.37500 0.129323
10.0000 0.125149
10.6250 0.121348
11.2500 0.117866
11.8750 0.114662
12.5000 0.111700
13.7500 0.106390
15.0000 0.101754
16.2500 0.0976602
17.5000 0.0940132
18.7500 0.0907343
20.0000 0.0877604
21.8750 0.0837834
23.7500 0.0802839
25.6250 0.0771717
27.5000 0.0743819
29.3750 0.0718603
31.2500 0.0695642
33.1250 0.0674633
35.0000 0.0655312
36.8750 0.0637461
38.7500 0.0620903
42.5000 0.0591083
46.2500 0.0564906
50.0000 0.0541687
53.1250 0.0524212
56.2500 0.0508176
59.3750 0.0493397
62.5000 0.0479716
68.7500 0.0455148
75.0000 0.0433647
81.2500 0.0414618
87.5000 0.0397621
93.7500 0.0382310
100.000 0.0368412
106.250 0.0355727
112.500 0.0344085
118.750 0.0333349
125.000 0.0323407
137.500 0.0305541
150.000 0.0289898
162.500 0.0276050
175.000 0.0263681
187.500 0.0252542
200.000 0.0242436
218.750 0.0228907
237.500 0.0216991
256.250 0.0206395
275.000 0.0196900
293.750 0.0188330
312.500 0.0180549
331.250 0.0173449
350.000 0.0166941
368.750 0.0160952
387.500 0.0155423
406.250 0.0150302
425.000 0.0145546
443.750 0.0141118
462.500 0.0136988
500.000 0.0129514
531.250 0.0123986
562.500 0.0119007
593.750 0.0114515
625.000 0.0110460
656.250 0.0106802
687.500 0.0103509
718.750 0.0100558
750.000 0.00979347
781.250 0.00956308
812.500 0.00936471
843.750 0.00919943
875.000 0.00906956
906.250 0.00897902
937.500 0.00893404
968.750 0.00894397
984.375 0.00897380
1000.00 0.00902373
1017.92 0.00911249
1035.84 0.00923781
1044.80 0.00930782
1053.76 0.00939710
1071.68 0.00961978
1089.60 0.00990836
1098.56 0.0100847
1107.52 0.0102894
1116.48 0.0105229
1125.44 0.0107888
1134.40 0.0110917
1143.36 0.0114393
1151.63 0.0118164
1159.90 0.0122353
1168.18 0.0127270
1176.45 0.0132914
1184.72 0.0139516
1188.85 0.0143198
1192.99 0.0147176
1197.12 0.0151526
1201.26 0.0156255
1205.39 0.0161365
1209.53 0.0166930
1213.67 0.0173068
1217.80 0.0179799
1221.94 0.0187138
1226.07 0.0195174
1229.86 0.0203318
1233.65 0.0212290
1237.44 0.0222173
1241.24 0.0233096
1245.03 0.0245196
1248.82 0.0258660
1252.61 0.0273688
1256.40 0.0290520
1260.02 0.0308570
1263.64 0.0328852
1265.45 0.0339955
1267.25 0.0351757
1269.06 0.0364346
1270.87 0.0377762
1272.68 0.0392099
1274.49 0.0407447
1276.30 0.0423872
1278.11 0.0441496
1279.92 0.0460476
1281.73 0.0480869
1283.54 0.0502795
1285.35 0.0526409
1287.24 0.0553420
1289.14 0.0582852
1291.03 0.0615019
1292.93 0.0650231
1294.82 0.0688924
1296.72 0.0731525
1298.61 0.0778603
1300.51 0.0830804
1302.41 0.0888931
1304.30 0.0953841
1305.25 0.0989207
1306.20 0.102671
1307.14 0.106653
1308.09 0.110880
1309.04 0.115384
1309.99 0.120184
1310.94 0.125306
1311.88 0.130774
1312.83 0.136633
1313.78 0.142905
1314.73 0.149646
1315.67 0.156883
1316.71 0.165408
1317.74 0.174667
1318.77 0.184773
1319.81 0.195829
1320.84 0.207945
1321.88 0.221256
1322.91 0.235925
1323.94 0.252126
1324.89 0.268547
1325.84 0.286665
1326.79 0.306721
1327.73 0.328978
1328.21 0.341056
1328.68 0.353824
1329.16 0.367335
1329.63 0.381647
1330.10 0.396827
1330.58 0.412944
1331.05 0.430078
1331.53 0.448277
1332.22 0.476999
1332.90 0.508557
1333.59 0.543379
1334.28 0.581922
1334.97 0.624808
1335.32 0.648070
1335.66 0.672602
1336.01 0.698654
1336.35 0.726191
1336.70 0.755500
1337.04 0.786550
1337.51 0.832606
1337.99 0.882871
1338.46 0.937873
1338.94 0.998226
1339.41 1.06465
1339.88 1.13799
1340.36 1.21925
1340.83 1.30940
1341.07 1.35842
1341.30 1.41026
1341.54 1.46514
1341.78 1.52333
1342.02 1.58507
1342.25 1.65068
1342.49 1.72048
1342.73 1.79451
1342.96 1.87381
1343.20 1.95852
1343.44 2.04915
1343.67 2.14626
1343.91 2.25051
1344.15 2.36261
1344.38 2.48338
1344.62 2.61319
1344.86 2.75420
1345.09 2.90708
1345.33 3.07324
1345.57 3.25427
1345.81 3.45202
1346.04 3.66866
1346.28 3.90668
1346.52 4.16904
1346.75 4.45922
1346.99 4.78135
1347.11 4.95668
1347.23 5.14041
1347.35 5.33644
1347.46 5.54234
1347.58 5.76254
1347.70 5.99439
1347.82 6.24298
1347.94 6.50542
1348.06 6.78760
1348.18 7.08637
1348.29 7.40860
1348.41 7.75085
1348.51 8.05072
1348.61 8.36875
1348.70 8.70647
1348.80 9.06552
1348.90 9.44776
1348.99 9.85521
1349.09 10.2901
1349.19 10.7499
1349.28 11.2470
1349.38 11.7797
1349.48 12.3514
1349.58 12.9656
1349.67 13.6263
1349.77 14.3381
1349.87 15.1055
1349.96 15.9251
1350.08 17.0322
1350.20 18.2401
1350.32 19.5815
1350.44 21.0470
1350.56 22.6755
1350.67 24.4541
1350.79 26.4282
1350.91 28.5797
1351.03 30.9599
1351.15 33.5429
1351.27 36.3849
1351.38 39.4486
1351.50 42.7934
1351.62 46.3663
1351.74 50.1934
1351.86 54.2676
1351.98 58.6132
1352.09 63.1365
1352.21 67.8855
1352.33 72.7438
1352.80 92.6958
1352.92 97.3594
1353.03 101.815
1353.15 105.992
1353.26 109.821
1353.38 113.235
1353.49 116.172
1353.61 118.578
1353.72 120.393
1353.86 121.787
1354.00 122.245
1354.04 122.213
1354.14 121.726
1354.25 120.677
1354.36 119.065
1354.47 116.948
1354.58 114.323
1354.69 111.282
1354.80 107.819
1354.90 104.052
1355.01 100.123
1355.11 95.9855
1355.32 87.3378
1355.74 69.7358
1355.85 65.3283
1355.96 61.1034
1356.07 57.0080
1356.17 53.1366
1356.28 49.4314
1356.39 45.9694
1356.50 42.7201
1356.61 39.6842
1356.72 36.8339
1356.82 34.2161
1356.93 31.7962
1357.04 29.5651
1357.15 27.4944
1357.26 25.6110
1357.37 23.8838
1357.47 22.3012
1357.55 21.2287
1357.63 20.2232
1357.71 19.2806
1357.79 18.4076
1357.87 17.5782
1357.95 16.8000
1358.03 16.0698
1358.10 15.3925
1358.18 14.7477
1358.26 14.1416
1358.34 13.5713
1358.42 13.0410
1358.50 12.5348
1358.58 12.0573
1358.66 11.6067
1358.73 11.1863
1358.84 10.6364
1358.95 10.1311
1359.06 9.66147
1359.17 9.22436
1359.28 8.81318
1359.38 8.43286
1359.49 8.07717
1359.60 7.74400
1359.71 7.42869
1359.82 7.13530
1359.92 6.85934
1360.03 6.59944
1360.14 6.35435
1360.25 6.12296
1360.46 5.69728
1360.68 5.31365
1360.90 4.96822
1361.12 4.65599
1361.33 4.37405
1361.55 4.11625
1361.76 3.88199
1361.98 3.66653
1362.20 3.46966
1362.40 3.29572
1362.61 3.13472
1362.82 2.98538
1363.02 2.84724
1363.23 2.71798
1363.44 2.59799
1363.64 2.48532
1363.85 2.38039
1364.06 2.28158
1364.26 2.18928
1364.47 2.10211
1364.68 2.02049
1364.88 1.94321
1365.09 1.87067
1365.30 1.80183
1365.50 1.73707
1365.72 1.67259
1365.94 1.61194
1366.37 1.49999
1366.80 1.39942
1367.23 1.30873
1367.67 1.22666
1368.10 1.15215
1368.53 1.08430
1368.97 1.02233
1369.28 0.980571
1369.60 0.941352
1369.91 0.904474
1370.23 0.869755
1370.54 0.837027
1370.86 0.806138
1371.17 0.776949
1371.49 0.749420
1372.12 0.698455
1372.75 0.652553
1373.38 0.611069
1374.00 0.573519
1374.44 0.549671
1374.87 0.527301
1375.30 0.506290
1375.74 0.486528
1376.17 0.467920
1376.60 0.450376
1377.04 0.433817
1377.47 0.418171
1378.33 0.389356
1379.20 0.363472
1380.07 0.340133
1380.93 0.319016
1381.80 0.299847
1382.66 0.282393
1383.53 0.266454
1384.40 0.251861
1385.26 0.238467
1386.13 0.226145
1386.99 0.214793
1387.86 0.204326
1388.73 0.194620
1389.59 0.185601
1390.46 0.177206
1391.32 0.169385
1392.19 0.162090
1393.06 0.155275
1393.92 0.148898
1394.79 0.142923
1395.65 0.137317
1396.52 0.132050
1397.39 0.127095
1398.25 0.122427
1399.12 0.118026
1399.98 0.113870
1401.72 0.106227
1402.98 0.101167
1404.23 0.0964870
1405.49 0.0921418
1406.75 0.0881065
1408.01 0.0843466
1409.27 0.0808430
1410.53 0.0775676
1411.79 0.0745059
1413.37 0.0709457
1414.94 0.0676591
1416.52 0.0646164
1418.09 0.0618076
1419.82 0.0589459
1421.55 0.0562868
1423.29 0.0538220
1425.02 0.0515357
1426.75 0.0494098
1428.48 0.0474291
1430.21 0.0455819
1431.94 0.0438570
1433.68 0.0422410
1435.41 0.0407269
1437.14 0.0393062
1438.87 0.0379705
1442.34 0.0355300
1445.80 0.0333588
1448.95 0.0315860
1452.10 0.0299797
1455.25 0.0285196
1458.40 0.0271884
1461.54 0.0259714
1464.69 0.0248557
1467.84 0.0238303
1470.99 0.0228895
1474.45 0.0219418
1477.92 0.0210632
1481.38 0.0202499
1484.85 0.0195062
1488.31 0.0188174
1491.77 0.0181746
1498.70 0.0170312
1505.63 0.0160334
1512.56 0.0151641
1519.48 0.0143994
1526.41 0.0137212
1532.08 0.0132241
1537.75 0.0127713
1543.41 0.0123575
1549.08 0.0119837
1554.75 0.0116334
1560.42 0.0113142
1566.09 0.0110123
1571.75 0.0107421
1583.09 0.0102493
1594.43 0.00982154
1605.76 0.00944802
1617.10 0.00912052
1628.43 0.00883203
1639.77 0.00857600
1651.11 0.00834718
1662.44 0.00814550
1673.78 0.00795934
1685.11 0.00779345
1696.45 0.00763790
1707.79 0.00750343
1719.12 0.00737416
1730.46 0.00726190
1753.13 0.00705899
1775.80 0.00688733
1798.47 0.00674173
1823.66 0.00660650
1848.86 0.00649523
1874.05 0.00639755
1899.24 0.00631968
1924.43 0.00625078
1949.62 0.00619799
2000.00 0.00612001
2035.61 0.00608957
2071.21 0.00607649
2120.17 0.00608697
2169.13 0.00612585
2218.09 0.00619554
2267.05 0.00630017
2316.01 0.00643844
2364.97 0.00662046
2389.45 0.00672675
2413.93 0.00685045
2462.89 0.00713406
2494.05 0.00735373
2525.20 0.00760674
2556.36 0.00789760
2571.94 0.00805238
2587.51 0.00822455
2618.67 0.00861129
2649.83 0.00906032
2665.40 0.00931163
2680.98 0.00958308
2696.56 0.00987673
2712.14 0.0101958
2729.94 0.0105959
2747.75 0.0110374
2765.55 0.0115260
2783.35 0.0120684
2801.16 0.0126725
2818.96 0.0133477
2836.76 0.0141056
2854.57 0.0149600
2872.37 0.0159264
2881.27 0.0164578
2890.17 0.0170267
2899.08 0.0176357
2907.98 0.0182883
2916.88 0.0189892
2925.78 0.0197429
2938.02 0.0208795
2950.26 0.0221396
2962.50 0.0235479
2968.62 0.0243167
2974.74 0.0251357
2980.86 0.0259982
2986.98 0.0269184
2993.10 0.0279069
2999.22 0.0289533
3005.34 0.0300709
3011.46 0.0312822
3017.58 0.0325750
3023.70 0.0339594
3030.38 0.0356139
3037.05 0.0373966
3043.73 0.0393719
3050.40 0.0415509
3057.08 0.0439750
3063.76 0.0466906
3067.10 0.0481804
3070.43 0.0497722
3073.77 0.0514781
3077.11 0.0533155
3080.73 0.0554816
3084.34 0.0578594
3087.96 0.0604738
3091.58 0.0634251
3095.19 0.0667836
3098.81 0.0706679
3100.62 0.0728610
3102.42 0.0752604
3104.23 0.0779043
3106.04 0.0808389
3107.71 0.0838520
3109.38 0.0872247
3111.05 0.0910529
3112.72 0.0954452
3114.39 0.100543
3116.05 0.106545
3117.72 0.113732
3118.56 0.117889
3119.39 0.122497
3120.30 0.128104
3121.20 0.134458
3122.11 0.141729
3123.01 0.150132
3123.91 0.159942
3124.82 0.171523
3125.72 0.185363
3126.17 0.193331
3126.63 0.202136
3127.25 0.215958
3127.88 0.232066
3128.50 0.251028
3128.82 0.261808
3129.13 0.273608
3129.44 0.286569
3129.76 0.300860
3130.07 0.316683
3130.38 0.334281
3130.69 0.353954
3131.01 0.376072
3131.32 0.401098
3131.63 0.429528
3132.00 0.468356
3132.18 0.490466
3132.36 0.514583
3132.55 0.541297
3132.73 0.570710
3132.91 0.603626
3133.09 0.640272
3133.28 0.681774
3133.46 0.728561
3133.64 0.782238
3133.82 0.843546
3134.01 0.914789
3134.19 0.997156
3134.28 1.04390
3134.37 1.09394
3134.46 1.14815
3134.55 1.20691
3134.65 1.27433
3134.75 1.34786
3134.84 1.42809
3134.94 1.51471
3135.03 1.61023
3135.13 1.71338
3135.22 1.82709
3135.32 1.94981
3135.41 2.08497
3135.51 2.23224
3135.61 2.39254
3135.70 2.56496
3135.80 2.75409
3135.89 2.95696
3135.99 3.17883
3136.08 3.41603
3136.15 3.59164
3136.21 3.77361
3136.28 3.96479
3136.34 4.16546
3136.41 4.37918
3136.48 4.59970
3136.54 4.83039
3136.61 5.07144
3136.67 5.32697
3136.74 5.58936
3136.87 6.14645
3137.00 6.74683
3137.13 7.39018
3137.22 7.89227
3137.32 8.41650
3137.41 8.96192
3137.51 9.52130
3137.70 10.6988
3137.89 11.9336
3138.19 13.9127
3138.48 15.8814
3138.67 17.1029
3138.86 18.2453
3139.06 19.2816
3139.25 20.1705
3139.35 20.5961
3139.46 20.9643
3139.57 21.2713
3139.67 21.5120
3139.82 21.7346
3139.91 21.8097
3140.00 21.8342
3140.09 21.8084
3140.18 21.7320
3140.27 21.6057
3140.36 21.4324
3140.46 21.1852
3140.56 20.8827
3140.66 20.5275
3140.76 20.1227
3140.86 19.6672
3140.96 19.1740
3141.16 18.0779
3141.37 16.8593
3141.57 15.5604
3141.64 15.0761
3141.81 13.9154
3141.99 12.7538
3142.16 11.6107
3142.33 10.5031
3142.53 9.27902
3142.63 8.70028
3142.73 8.14384
3142.83 7.60576
3142.93 7.09761
3143.03 6.61459
3143.13 6.15705
3143.21 5.81794
3143.29 5.49841
3143.37 5.19004
3143.44 4.90055
3143.52 4.62215
3143.60 4.36169
3143.68 4.11204
3143.75 3.87920
3143.83 3.65671
3143.91 3.44980
3143.99 3.25261
3144.06 3.06971
3144.14 2.89584
3144.22 2.73493
3144.30 2.58228
3144.37 2.44128
3144.48 2.25558
3144.59 2.08853
3144.70 1.93567
3144.81 1.79847
3144.92 1.67313
3145.03 1.56076
3145.14 1.45905
3145.25 1.36699
3145.36 1.28290
3145.47 1.20744
3145.58 1.13840
3145.69 1.07632
3145.80 1.01938
3145.91 0.968027
3146.01 0.921181
3146.12 0.878365
3146.32 0.808582
3146.52 0.749082
3146.73 0.697445
3146.93 0.652730
3147.13 0.613324
3147.33 0.578692
3147.53 0.547742
3147.73 0.520188
3147.93 0.495272
3148.13 0.472854
3148.33 0.452389
3148.53 0.433817
3148.93 0.401124
3149.33 0.373467
3149.70 0.351702
3150.06 0.332662
3150.43 0.315900
3150.79 0.301101
3151.15 0.287900
3151.52 0.276138
3151.88 0.265560
3152.25 0.256065
3152.98 0.239708
3153.71 0.226237
3154.43 0.215048
3155.16 0.205689
3155.86 0.198177
3156.55 0.191777
3157.24 0.186307
3157.93 0.181625
3158.63 0.177596
3159.32 0.174140
3160.70 0.168627
3162.09 0.164619
3163.48 0.161790
3164.86 0.159896
3166.25 0.158763
3167.41 0.158305
3168.94 0.158285
3170.48 0.158809
3172.01 0.159789
3173.54 0.161175
3175.07 0.162929
3176.60 0.165016
3179.66 0.170091
