Br-79(n,tot) ENDFB-8.0
Energy(eV) XS(b)
1.00000E-05 574.834
1.03125E-05 566.064
1.06250E-05 557.684
1.09375E-05 549.665
1.12500E-05 541.984
1.15625E-05 534.615
1.18750E-05 527.540
1.21875E-05 520.739
1.25000E-05 514.194
1.28125E-05 507.891
1.31250E-05 501.814
1.34375E-05 495.950
1.37500E-05 490.288
1.43750E-05 479.522
1.50000E-05 469.436
1.56250E-05 459.963
1.62500E-05 451.041
1.68750E-05 442.620
1.75000E-05 434.654
1.81250E-05 427.104
1.87500E-05 419.935
1.93750E-05 413.116
2.00000E-05 406.619
2.09375E-05 397.425
2.18750E-05 388.829
2.28125E-05 380.768
2.37500E-05 373.190
2.46875E-05 366.048
2.56250E-05 359.302
2.65625E-05 352.917
2.75000E-05 346.861
2.84375E-05 341.107
2.93750E-05 335.631
3.03125E-05 330.412
3.12500E-05 325.429
3.21875E-05 320.666
3.31250E-05 316.106
3.40625E-05 311.736
3.50000E-05 307.543
3.59375E-05 303.516
3.68750E-05 299.643
3.78125E-05 295.915
3.87500E-05 292.324
3.96875E-05 288.860
4.06250E-05 285.517
4.25000E-05 279.167
4.43750E-05 273.224
4.62500E-05 267.647
4.81250E-05 262.399
5.00000E-05 257.449
5.15625E-05 253.533
5.31250E-05 249.790
5.46875E-05 246.210
5.62500E-05 242.780
5.78125E-05 239.490
5.93750E-05 236.331
6.09375E-05 233.295
6.25000E-05 230.373
6.40625E-05 227.559
6.56250E-05 224.846
6.71875E-05 222.229
6.87500E-05 219.701
7.18750E-05 214.896
7.50000E-05 210.394
7.81250E-05 206.166
8.12500E-05 202.185
8.43750E-05 198.428
8.75000E-05 194.874
9.06250E-05 191.505
9.37500E-05 188.307
9.68750E-05 185.265
0.000100000 182.368
0.000103125 179.603
0.000106250 176.961
0.000109375 174.434
0.000112500 172.013
0.000115625 169.691
0.000118750 167.461
0.000121875 165.318
0.000125000 163.256
0.000128125 161.270
0.000131250 159.356
0.000134375 157.509
0.000137500 155.725
0.000143750 152.335
0.000150000 149.159
0.000156250 146.177
0.000162500 143.368
0.000168750 140.718
0.000175000 138.211
0.000181250 135.836
0.000187500 133.580
0.000193750 131.435
0.000200000 129.392
0.000209375 126.501
0.000218750 123.799
0.000228125 121.265
0.000237500 118.884
0.000246875 116.640
0.000256250 114.521
0.000265625 112.515
0.000275000 110.614
0.000284375 108.807
0.000293750 107.089
0.000303125 105.451
0.000312500 103.887
0.000321875 102.393
0.000331250 100.963
0.000340625 99.5920
0.000350000 98.2773
0.000359375 97.0146
0.000368750 95.8006
0.000378125 94.6322
0.000387500 93.5067
0.000396875 92.4216
0.000406250 91.3744
0.000425000 89.3854
0.000443750 87.5245
0.000462500 85.7786
0.000481250 84.1363
0.000500000 82.5877
0.000515625 81.3626
0.000531250 80.1923
0.000546875 79.0727
0.000562500 78.0004
0.000578125 76.9721
0.000593750 75.9850
0.000609375 75.0362
0.000625000 74.1234
0.000640625 73.2445
0.000656250 72.3972
0.000671875 71.5799
0.000687500 70.7908
0.000718750 69.2909
0.000750000 67.8863
0.000781250 66.5673
0.000812500 65.3256
0.000843750 64.1539
0.000875000 63.0459
0.000906250 61.9960
0.000937500 60.9994
0.000968750 60.0517
0.00100000 59.1490
0.00103125 58.2879
0.00106250 57.4653
0.00109375 56.6784
0.00112500 55.9247
0.00115625 55.2019
0.00118750 54.5080
0.00121875 53.8411
0.00125000 53.1995
0.00128125 52.5816
0.00131250 51.9861
0.00134375 51.4116
0.00137500 50.8568
0.00143750 49.8024
0.00150000 48.8149
0.00156250 47.8876
0.00162500 47.0146
0.00168750 46.1907
0.00175000 45.4116
0.00181250 44.6734
0.00187500 43.9725
0.00193750 43.3060
0.00200000 42.6711
0.00209375 41.7729
0.00218750 40.9333
0.00228125 40.1462
0.00237500 39.4064
0.00246875 38.7093
0.00256250 38.0510
0.00265625 37.4279
0.00275000 36.8372
0.00284375 36.2760
0.00293750 35.7420
0.00303125 35.2330
0.00312500 34.7472
0.00321875 34.2829
0.00331250 33.8385
0.00340625 33.4126
0.00350000 33.0040
0.00359375 32.6116
0.00368750 32.2343
0.00378125 31.8711
0.00387500 31.5213
0.00396875 31.1839
0.00406250 30.8584
0.00425000 30.2400
0.00443750 29.6613
0.00462500 29.1184
0.00481250 28.6075
0.00500000 28.1258
0.00515625 27.7446
0.00531250 27.3804
0.00546875 27.0320
0.00562500 26.6983
0.00578125 26.3782
0.00593750 26.0708
0.00609375 25.7754
0.00625000 25.4912
0.00640625 25.2175
0.00656250 24.9536
0.00671875 24.6990
0.00687500 24.4531
0.00718750 23.9857
0.00750000 23.5479
0.00781250 23.1367
0.00812500 22.7496
0.00843750 22.3841
0.00875000 22.0385
0.00906250 21.7109
0.00937500 21.3999
0.00968750 21.1041
0.0100000 20.8223
0.0103125 20.5535
0.0106250 20.2966
0.0109375 20.0508
0.0112500 19.8153
0.0115625 19.5895
0.0118750 19.3727
0.0121875 19.1643
0.0125000 18.9638
0.0128125 18.7707
0.0131250 18.5845
0.0134375 18.4048
0.0137500 18.2314
0.0143750 17.9016
0.0150000 17.5927
0.0156250 17.3025
0.0162500 17.0292
0.0168750 16.7713
0.0175000 16.5274
0.0181250 16.2962
0.0187500 16.0766
0.0193750 15.8678
0.0200000 15.6688
0.0206625 15.4679
0.0213250 15.2764
0.0219875 15.0937
0.0226500 14.9190
0.0233125 14.7518
0.0239750 14.5917
0.0246375 14.4380
0.0253000 14.2905
0.0264578 14.0460
0.0276156 13.8172
0.0287734 13.6023
0.0299313 13.4001
0.0310891 13.2092
0.0322469 13.0288
0.0334047 12.8578
0.0345625 12.6955
0.0355274 12.5663
0.0364922 12.4423
0.0374570 12.3231
0.0384219 12.2084
0.0393867 12.0980
0.0403516 11.9915
0.0413164 11.8888
0.0422813 11.7897
0.0442109 11.6011
0.0461406 11.4246
0.0480703 11.2588
0.0500000 11.1027
0.0515625 10.9827
0.0531250 10.8681
0.0546875 10.7585
0.0562500 10.6535
0.0578125 10.5527
0.0593750 10.4560
0.0609375 10.3630
0.0625000 10.2736
0.0640625 10.1874
0.0656250 10.1044
0.0671875 10.0243
0.0687500 9.94688
0.0718750 9.79975
0.0750000 9.66188
0.0781250 9.53235
0.0812500 9.41033
0.0843750 9.29515
0.0875000 9.18618
0.0906250 9.08290
0.0937500 8.98483
0.0968750 8.89154
0.100000 8.80266
0.103125 8.71785
0.106250 8.63680
0.109375 8.55926
0.112500 8.48497
0.115625 8.41371
0.118750 8.34528
0.121875 8.27950
0.125000 8.21622
0.128125 8.15527
0.131250 8.09653
0.134375 8.03985
0.137500 7.98511
0.143750 7.88103
0.150000 7.78347
0.156250 7.69178
0.162500 7.60540
0.168750 7.52386
0.175000 7.44672
0.181250 7.37361
0.187500 7.30419
0.193750 7.23817
0.200000 7.17528
0.209375 7.08625
0.218750 7.00295
0.228125 6.92480
0.237500 6.85130
0.246875 6.78201
0.256250 6.71655
0.265625 6.65457
0.275000 6.59578
0.284375 6.53991
0.293750 6.48673
0.303125 6.43602
0.312500 6.38760
0.321875 6.34131
0.331250 6.29698
0.340625 6.25448
0.350000 6.21370
0.359375 6.17451
0.368750 6.13682
0.378125 6.10053
0.387500 6.06558
0.396875 6.03188
0.406250 5.99937
0.425000 5.93755
0.443750 5.87959
0.462500 5.82515
0.500000 5.72568
0.531250 5.65090
0.562500 5.58222
0.593750 5.51897
0.625000 5.46048
0.687500 5.35555
0.750000 5.26384
0.812500 5.18278
0.875000 5.11061
0.937500 5.04563
1.00000 4.98652
1.06250 4.93259
1.12500 4.88311
1.18750 4.83750
1.25000 4.79526
1.37500 4.71933
1.50000 4.65281
1.62500 4.59384
1.75000 4.54119
1.87500 4.49367
2.00000 4.45030
2.18750 4.39205
2.37500 4.34053
2.56250 4.29445
2.75000 4.25296
2.93750 4.21524
3.12500 4.18065
3.31250 4.14884
3.50000 4.11942
3.68750 4.09209
3.87500 4.06661
4.25000 4.02038
4.62500 3.97939
5.00000 3.94272
5.31250 3.91489
5.62500 3.88916
5.93750 3.86530
6.25000 3.84308
6.87500 3.80286
7.50000 3.76735
8.12500 3.73574
8.75000 3.70743
9.37500 3.68195
10.0000 3.65890
10.6250 3.63807
11.5625 3.61070
12.5000 3.58717
13.1250 3.57372
13.7500 3.56196
14.3750 3.55188
15.0000 3.54353
15.6250 3.53697
16.2500 3.53232
16.8750 3.52971
17.5000 3.52935
18.1250 3.53147
18.7500 3.53638
19.3750 3.54448
20.0000 3.55620
20.5804 3.57092
21.1608 3.58997
21.4510 3.60119
21.7412 3.61398
22.0314 3.62805
22.3216 3.64385
22.9020 3.68078
23.1922 3.70254
23.4824 3.72632
23.7726 3.75287
24.0627 3.78174
24.3529 3.81419
24.6431 3.85019
24.9792 3.89680
25.3152 3.94940
25.6512 4.00884
25.9872 4.07615
26.3232 4.15253
26.6592 4.23941
26.9952 4.33854
27.3313 4.45200
27.6367 4.56973
27.9422 4.70375
28.0949 4.77773
28.2477 4.85688
28.4004 4.94168
28.5531 5.03260
28.7059 5.13022
28.8586 5.23516
29.0113 5.34811
29.1641 5.46985
29.3168 5.60117
29.4695 5.74267
29.6223 5.89553
29.7750 6.06180
29.9430 6.26177
30.1110 6.48143
30.2790 6.72325
30.4470 6.99015
30.6151 7.28555
30.7831 7.61349
30.9511 7.97871
31.1191 8.38681
31.2718 8.80071
31.4245 9.26161
31.5773 9.77671
31.7300 10.3545
31.8064 10.6701
31.8828 11.0053
31.9591 11.3619
32.0355 11.7415
32.1119 12.1463
32.1882 12.5784
32.2646 13.0401
32.3409 13.5342
32.4402 14.2296
32.5395 14.9918
32.6388 15.8299
32.7381 16.7552
32.8373 17.7802
32.9366 18.9191
33.0359 20.1886
33.1352 21.6088
33.2192 22.9465
33.3032 24.4271
33.3872 26.0716
33.4292 26.9628
33.4712 27.9046
33.5132 28.9010
33.5552 29.9559
33.5972 31.0739
33.6392 32.2603
33.6812 33.5204
33.7232 34.8606
33.7652 36.2877
33.8072 37.8094
33.8530 39.5873
33.8988 41.5006
33.9447 43.5633
33.9905 45.7914
34.0363 48.2031
34.0821 50.8189
34.1279 53.6624
34.1738 56.7604
34.2158 59.8510
34.2578 63.2084
34.2998 66.8660
34.3418 70.8586
34.3628 72.9948
34.3838 75.2304
34.4048 77.5728
34.4258 80.0287
34.4468 82.6058
34.4678 85.3120
34.4888 88.1562
34.5098 91.1480
34.5308 94.2992
34.5518 97.6183
34.5728 101.119
34.5938 104.815
34.6148 108.721
34.6358 112.853
34.6568 117.229
34.6778 121.870
34.6988 126.796
34.7198 132.032
34.7408 137.605
34.7618 143.544
34.7828 149.884
34.8038 156.660
34.8248 163.915
34.8458 171.696
34.8668 180.059
34.8878 189.056
34.9088 198.758
34.9298 209.242
34.9508 220.595
34.9718 232.918
34.9928 246.325
35.0138 260.949
35.0348 276.942
35.0558 294.479
35.0768 313.767
35.0873 324.140
35.0978 335.042
35.1083 346.508
35.1188 358.579
35.1293 371.294
35.1398 384.698
35.1503 398.840
35.1608 413.770
35.1713 429.545
35.1818 446.224
35.1923 463.886
35.2028 482.568
35.2133 502.358
35.2238 523.333
35.2343 545.575
35.2448 569.171
35.2553 594.213
35.2658 620.797
35.2763 649.052
35.2868 679.029
35.2973 710.865
35.3078 744.671
35.3183 780.563
35.3288 818.659
35.3393 859.079
35.3498 901.939
35.3651 968.915
35.3804 1041.61
35.3957 1120.45
35.4109 1205.61
35.4262 1297.46
35.4415 1396.03
35.4567 1501.47
35.4720 1613.77
35.4825 1694.91
35.4930 1779.14
35.5140 1956.42
35.5350 2144.27
35.5560 2340.72
35.5770 2543.19
35.5980 2748.46
35.6400 3151.61
35.6550 3287.97
35.6700 3417.56
35.6850 3538.64
35.7000 3649.51
35.7125 3732.94
35.7250 3807.29
35.7375 3871.76
35.7500 3925.66
35.7625 3968.40
35.7750 3999.50
35.7875 4018.63
35.8000 4025.56
35.8100 4022.29
35.8213 4009.26
35.8325 3986.48
35.8438 3954.16
35.8550 3912.60
35.8663 3862.20
35.8775 3803.41
35.8888 3736.77
35.9000 3662.85
35.9135 3565.44
35.9270 3459.64
35.9540 3227.78
35.9810 2977.25
36.0080 2717.74
36.0371 2437.72
36.0663 2166.86
36.0808 2037.07
36.0954 1912.02
36.1100 1792.22
36.1245 1678.15
36.1434 1539.18
36.1623 1410.47
36.1811 1291.97
36.1905 1236.47
36.2000 1183.48
36.2094 1132.85
36.2188 1084.57
36.2282 1038.58
36.2377 994.855
36.2471 953.221
36.2565 913.691
36.2659 876.098
36.2754 840.441
36.2848 806.560
36.2942 774.411
36.3037 743.913
36.3131 715.014
36.3225 687.575
36.3319 661.575
36.3414 636.885
36.3508 613.486
36.3696 570.162
36.3885 531.126
36.4073 495.884
36.4262 464.009
36.4399 442.707
36.4536 422.868
36.4673 404.356
36.4810 387.061
36.4947 370.882
36.5085 355.728
36.5222 341.517
36.5359 328.172
36.5496 315.617
36.5633 303.807
36.5770 292.677
36.5907 282.174
36.6044 272.253
36.6181 262.871
36.6456 245.570
36.6644 234.689
36.6833 224.556
36.7021 215.097
36.7210 206.253
36.7398 197.966
36.7587 190.198
36.7775 182.901
36.7964 176.038
36.8152 169.570
36.8341 163.475
36.8529 157.720
36.8718 152.279
36.9095 142.254
36.9472 133.240
36.9849 125.100
37.0226 117.728
37.0603 111.025
37.0980 104.916
37.1357 99.3269
37.1734 94.2036
37.2111 89.4923
37.2488 85.1515
37.2848 81.3160
37.3208 77.7540
37.3568 74.4388
37.3928 71.3476
37.4288 68.4603
37.4648 65.7591
37.5008 63.2281
37.5368 60.8531
37.5728 58.6209
37.6088 56.5213
37.6447 54.5433
37.6807 52.6777
37.7167 50.9161
37.7527 49.2507
37.7887 47.6747
37.8247 46.1817
37.8624 44.7000
37.9001 43.2970
37.9755 40.7056
38.0509 38.3683
38.1263 36.2525
38.2018 34.3309
38.2772 32.5799
38.3526 30.9799
38.4280 29.5136
38.4794 28.5830
38.5308 27.7037
38.5822 26.8719
38.6337 26.0846
38.7365 24.6303
38.8393 23.3188
38.9421 22.1311
39.0450 21.0513
39.1478 20.0664
39.2506 19.1659
39.3260 18.5537
39.4015 17.9786
39.4769 17.4375
39.5523 16.9279
39.6277 16.4473
39.7031 15.9934
39.7785 15.5644
39.8539 15.1584
40.0047 14.4091
40.1556 13.7340
40.3064 13.1234
40.4572 12.5694
40.6080 12.0651
40.7588 11.6046
40.9097 11.1830
41.0605 10.7960
41.2113 10.4399
41.3621 10.1116
41.5129 9.80851
41.6638 9.52829
41.8146 9.26832
41.9654 9.02628
42.1162 8.80073
42.2670 8.59044
42.4179 8.39419
42.5687 8.21081
42.7195 8.03927
42.8703 7.87865
43.0211 7.72812
43.1720 7.58695
43.3228 7.45447
43.4736 7.33008
43.6244 7.21326
43.7752 7.10351
44.0769 6.90360
44.3237 6.75778
44.5705 6.62651
44.8173 6.50872
45.0641 6.40355
45.3109 6.31028
45.5577 6.22844
45.8045 6.15765
46.0513 6.09776
46.3529 6.03934
46.6545 5.99752
46.8054 5.98307
46.9562 5.97310
47.1070 5.96779
47.2578 5.96736
47.4086 5.97207
47.5595 5.98224
47.7103 5.99823
47.8611 6.02047
48.0119 6.04945
48.1627 6.08574
48.3136 6.12988
48.4644 6.18262
48.6152 6.24507
48.7660 6.31853
48.9168 6.40424
49.0677 6.50362
49.2185 6.61844
49.3693 6.75080
49.5201 6.90326
49.6709 7.07886
49.7532 7.18570
49.8355 7.30117
49.9177 7.42609
50.0000 7.56129
50.1303 7.79882
50.2605 8.06903
50.3908 8.37734
50.4559 8.54776
50.5210 8.73019
50.5862 8.92573
50.6513 9.13547
50.7164 9.36069
50.7815 9.60280
50.8467 9.86349
50.9118 10.1446
50.9769 10.4483
51.0420 10.7768
51.1175 11.1919
51.1929 11.6486
51.2683 12.1523
51.3437 12.7094
51.4191 13.3273
51.4945 14.0149
51.5699 14.7825
51.6453 15.6427
51.6933 16.2451
51.7413 16.8956
51.7893 17.5993
51.8373 18.3620
51.8853 19.1904
51.9333 20.0920
51.9813 21.0755
52.0292 22.1509
52.0807 23.4189
52.1321 24.8229
52.1835 26.3830
52.2349 28.1229
52.2606 29.0693
52.2863 30.0720
52.3120 31.1356
52.3377 32.2645
52.3634 33.4653
52.3892 34.7437
52.4149 36.1065
52.4406 37.5607
52.4783 39.8789
52.5160 42.4438
52.5537 45.2934
52.5914 48.4699
52.6102 50.1981
52.6291 52.0279
52.6479 53.9685
52.6668 56.0292
52.6856 58.2201
52.7045 60.5526
52.7233 63.0393
52.7422 65.6941
52.7576 68.0032
52.7730 70.4431
52.7885 73.0274
52.8039 75.7639
52.8193 78.6685
52.8347 81.7511
52.8502 85.0305
52.8656 88.5186
52.8810 92.2380
52.8964 96.2032
52.9119 100.441
52.9273 104.969
52.9427 109.818
52.9581 115.011
52.9736 120.584
52.9890 126.562
53.0079 134.481
53.0267 143.130
53.0456 152.588
53.0550 157.649
53.0644 162.938
53.0738 168.477
53.0833 174.272
53.0927 180.335
53.1021 186.672
53.1115 193.306
53.1210 200.238
53.1304 207.493
53.1398 215.070
53.1492 222.996
53.1587 231.276
53.1681 239.922
53.1775 248.937
53.1870 258.351
53.1964 268.156
53.2058 278.383
53.2152 289.019
53.2247 300.097
53.2341 311.614
53.2529 335.977
53.2718 362.161
53.2906 390.179
53.3095 420.034
53.3283 451.645
53.3472 484.940
53.3660 519.786
53.3849 556.026
53.4038 593.395
53.4226 631.636
53.4415 670.425
53.4876 765.305
53.5107 811.179
53.5338 854.821
53.5516 886.444
53.5694 915.779
53.5872 942.443
53.6050 966.063
53.6228 986.307
53.6406 1002.85
53.6584 1015.47
53.6763 1023.96
53.7000 1028.66
53.7238 1025.70
53.7431 1017.70
53.7624 1004.87
53.7817 987.431
53.8009 965.725
53.8202 940.117
53.8395 911.059
53.8588 879.036
53.8781 844.577
53.9093 785.143
53.9404 722.870
54.0026 597.568
54.0335 538.041
54.0490 509.515
54.0645 481.959
54.0800 455.455
54.0955 430.067
54.1109 405.838
54.1264 382.809
54.1447 357.113
54.1630 333.098
54.1813 310.710
54.1996 289.929
54.2179 270.670
54.2362 252.882
54.2545 236.477
54.2728 221.370
54.2882 209.533
54.3037 198.512
54.3192 188.253
54.3347 178.707
54.3502 169.823
54.3656 161.554
54.3811 153.855
54.3966 146.688
54.4121 140.004
54.4276 133.770
54.4430 127.950
54.4585 122.514
54.4740 117.430
54.4895 112.670
54.5050 108.210
54.5204 104.029
54.5359 100.100
54.5514 96.4054
54.5669 92.9281
54.5823 89.6514
54.5978 86.5603
54.6133 83.6411
54.6288 80.8813
54.6443 78.2711
54.6752 73.4499
54.7062 69.1057
54.7371 65.1766
54.7681 61.6114
54.7920 59.0751
54.8159 56.7122
54.8399 54.5060
54.8638 52.4427
54.8877 50.5089
54.9116 48.6954
54.9355 46.9914
54.9595 45.3880
54.9834 43.8766
55.0073 42.4514
55.0312 41.1051
55.0552 39.8319
55.1030 37.4841
55.1508 35.3707
55.1818 34.1133
55.2128 32.9338
55.2437 31.8259
55.2747 30.7840
55.3056 29.8023
55.3366 28.8765
55.3675 28.0023
55.3985 27.1762
55.4295 26.3940
55.4604 25.6530
55.5223 24.2832
55.5842 23.0461
55.6462 21.9250
55.7081 20.9054
55.7700 19.9754
55.8319 19.1243
55.8938 18.3436
55.9557 17.6253
56.0176 16.9631
56.0796 16.3509
56.1415 15.7839
56.2034 15.2573
56.2653 14.7674
56.3272 14.3107
56.3891 13.8843
56.4511 13.4852
56.5130 13.1113
56.5749 12.7604
56.6368 12.4307
56.6987 12.1204
56.7606 11.8280
56.8226 11.5521
56.8845 11.2915
56.9464 11.0450
57.0083 10.8116
57.1321 10.3803
57.2560 9.99114
57.3798 9.63857
57.5036 9.31799
57.6275 9.02551
57.7513 8.75780
57.8751 8.51204
57.9989 8.28580
58.1228 8.07704
58.2297 7.90943
58.3367 7.75251
58.4436 7.60529
58.5506 7.46685
58.6575 7.33641
58.7644 7.21333
58.8714 7.09707
58.9783 6.98713
59.0853 6.88304
59.1922 6.78439
59.4061 6.60182
59.6200 6.43666
59.8339 6.28664
59.9577 6.20592
60.0815 6.12931
60.3292 5.98721
60.5769 5.85829
60.8245 5.74084
61.0722 5.63343
61.3198 5.53483
61.5675 5.44402
61.8152 5.36011
62.0178 5.29607
62.2204 5.23582
62.4231 5.17909
62.6257 5.12561
62.8283 5.07492
63.0310 5.02676
63.2336 4.98104
63.4362 4.93758
63.8415 4.85683
64.2468 4.78334
64.6520 4.71616
65.0573 4.65447
65.3049 4.61918
65.5526 4.58556
66.0479 4.52284
66.5432 4.46546
67.0386 4.41274
67.5339 4.36410
68.0292 4.31904
68.5245 4.27715
69.0199 4.23808
69.4702 4.20477
69.9204 4.17354
70.3707 4.14381
70.8210 4.11567
71.2713 4.08885
71.7216 4.06342
72.1719 4.03918
72.6222 4.01599
73.5228 3.97270
74.4234 3.93290
75.3240 3.89611
76.2245 3.86194
76.8099 3.84101
77.3953 3.82097
77.9807 3.80175
78.5661 3.78328
79.7368 3.74841
80.9076 3.71601
82.0784 3.68570
83.2491 3.65745
84.4199 3.63053
85.5906 3.60509
87.3918 3.56850
88.2924 3.55112
89.1930 3.53441
90.0936 3.51811
90.9942 3.50239
92.7953 3.47217
94.5965 3.44357
96.3977 3.41627
98.1988 3.39008
100.000 3.36488
102.256 3.33454
104.512 3.30528
106.767 3.27690
109.023 3.24926
111.279 3.22225
113.534 3.19571
115.790 3.16952
118.046 3.14359
121.204 3.10757
124.362 3.07162
127.520 3.03553
129.099 3.01742
130.678 2.99918
133.836 2.96223
136.994 2.92454
138.573 2.90536
140.152 2.88592
141.731 2.86619
143.310 2.84616
144.494 2.83090
145.678 2.81549
146.862 2.79993
148.047 2.78422
149.231 2.76845
149.823 2.76058
150.415 2.75276
151.007 2.74504
151.599 2.73752
152.192 2.73031
152.488 2.72689
152.784 2.72364
153.080 2.72060
153.376 2.71785
153.672 2.71550
153.968 2.71370
154.116 2.71307
154.264 2.71266
154.412 2.71251
154.560 2.71267
154.708 2.71322
154.856 2.71423
155.004 2.71583
155.152 2.71815
155.237 2.71988
155.321 2.72195
155.406 2.72442
155.490 2.72735
155.575 2.73082
155.660 2.73493
155.744 2.73979
155.829 2.74556
155.906 2.75181
155.984 2.75915
156.062 2.76784
156.139 2.77816
156.178 2.78407
156.217 2.79055
156.255 2.79768
156.294 2.80551
156.333 2.81421
156.372 2.82383
156.410 2.83458
156.449 2.84658
156.477 2.85625
156.506 2.86680
156.548 2.88453
156.590 2.90498
156.611 2.91641
156.632 2.92869
156.654 2.94202
156.675 2.95638
156.694 2.97064
156.714 2.98601
156.733 3.00260
156.752 3.02053
156.772 3.03992
156.791 3.06091
156.811 3.08366
156.830 3.10819
156.849 3.13492
156.869 3.16394
156.888 3.19544
156.907 3.22946
156.927 3.26656
156.946 3.30684
156.966 3.35054
156.985 3.39767
157.006 3.45397
157.027 3.51507
157.048 3.58193
157.069 3.65430
157.087 3.71976
157.105 3.78939
157.122 3.86377
157.140 3.94309
157.158 4.02804
157.175 4.11785
157.193 4.21314
157.210 4.31407
157.230 4.43199
157.249 4.55703
157.269 4.68924
157.288 4.82793
157.307 4.97449
157.327 5.12812
157.346 5.28864
157.365 5.45493
157.394 5.70905
157.432 6.07800
157.471 6.46502
157.549 7.26685
157.591 7.70256
157.633 8.12176
157.672 8.48083
157.711 8.80535
157.739 9.01342
157.767 9.19448
157.795 9.34639
157.823 9.46664
157.842 9.53003
157.862 9.57671
157.881 9.60679
157.900 9.61975
157.931 9.60438
157.963 9.54422
157.994 9.44065
158.025 9.29595
158.048 9.16824
