Kr-84(n,g) ENDFB-8.0
Energy(eV) XS(b)
1.00000E-05 5.53259
1.03125E-05 5.44812
1.06250E-05 5.36740
1.09375E-05 5.29017
1.12500E-05 5.21617
1.15625E-05 5.14520
1.18750E-05 5.07705
1.21875E-05 5.01154
1.25000E-05 4.94850
1.28125E-05 4.88778
1.31250E-05 4.82924
1.34375E-05 4.77275
1.37500E-05 4.71821
1.43750E-05 4.61450
1.50000E-05 4.51734
1.56250E-05 4.42607
1.62500E-05 4.34012
1.68750E-05 4.25899
1.75000E-05 4.18224
1.81250E-05 4.10950
1.87500E-05 4.04043
1.93750E-05 3.97473
2.00000E-05 3.91213
2.09375E-05 3.82354
2.18750E-05 3.74071
2.28125E-05 3.66304
2.37500E-05 3.59002
2.46875E-05 3.52119
2.56250E-05 3.45618
2.65625E-05 3.39464
2.75000E-05 3.33628
2.84375E-05 3.28082
2.93750E-05 3.22804
3.03125E-05 3.17773
3.12500E-05 3.12970
3.21875E-05 3.08379
3.31250E-05 3.03984
3.40625E-05 2.99771
3.50000E-05 2.95729
3.59375E-05 2.91846
3.68750E-05 2.88113
3.78125E-05 2.84519
3.87500E-05 2.81056
3.96875E-05 2.77716
4.06250E-05 2.74493
4.25000E-05 2.68370
4.43750E-05 2.62639
4.62500E-05 2.57260
4.81250E-05 2.52199
5.00000E-05 2.47425
5.15625E-05 2.43647
5.31250E-05 2.40037
5.46875E-05 2.36583
5.62500E-05 2.33274
5.78125E-05 2.30100
5.93750E-05 2.27053
6.09375E-05 2.24123
6.25000E-05 2.21304
6.40625E-05 2.18588
6.56250E-05 2.15970
6.71875E-05 2.13444
6.87500E-05 2.11005
7.18750E-05 2.06367
7.50000E-05 2.02022
7.81250E-05 1.97940
8.12500E-05 1.94096
8.43750E-05 1.90468
8.75000E-05 1.87036
9.06250E-05 1.83783
9.37500E-05 1.80694
9.68750E-05 1.77755
0.000100000 1.74956
0.000103125 1.72285
0.000106250 1.69732
0.000109375 1.67290
0.000112500 1.64950
0.000115625 1.62706
0.000118750 1.60551
0.000121875 1.58479
0.000125000 1.56485
0.000128125 1.54565
0.000131250 1.52714
0.000134375 1.50928
0.000137500 1.49203
0.000143750 1.45923
0.000150000 1.42851
0.000156250 1.39965
0.000162500 1.37247
0.000168750 1.34681
0.000175000 1.32254
0.000181250 1.29954
0.000187500 1.27770
0.000193750 1.25692
0.000200000 1.23713
0.000209375 1.20911
0.000218750 1.18292
0.000228125 1.15836
0.000237500 1.13526
0.000246875 1.11350
0.000256250 1.09294
0.000265625 1.07348
0.000275000 1.05502
0.000284375 1.03749
0.000293750 1.02080
0.000303125 1.00489
0.000312500 0.989700
0.000321875 0.975181
0.000331250 0.961282
0.000340625 0.947961
0.000350000 0.935179
0.000359375 0.922900
0.000368750 0.911093
0.000378125 0.899728
0.000387500 0.888777
0.000396875 0.878217
0.000406250 0.868025
0.000425000 0.848661
0.000443750 0.830538
0.000462500 0.813529
0.000481250 0.797524
0.000500000 0.782427
0.000515625 0.770481
0.000531250 0.759066
0.000546875 0.748144
0.000562500 0.737680
0.000578125 0.727643
0.000593750 0.718005
0.000609375 0.708740
0.000625000 0.699825
0.000640625 0.691238
0.000656250 0.682959
0.000671875 0.674971
0.000687500 0.667257
0.000718750 0.652590
0.000750000 0.638850
0.000781250 0.625943
0.000812500 0.613788
0.000843750 0.602314
0.000875000 0.591461
0.000906250 0.581174
0.000937500 0.571406
0.000968750 0.562114
0.00100000 0.553261
0.00103125 0.544814
0.00106250 0.536743
0.00109375 0.529019
0.00112500 0.521620
0.00115625 0.514523
0.00118750 0.507708
0.00121875 0.501157
0.00125000 0.494853
0.00128125 0.488781
0.00131250 0.482927
0.00134375 0.477278
0.00137500 0.471824
0.00143750 0.461453
0.00150000 0.451737
0.00156250 0.442610
0.00162500 0.434015
0.00168750 0.425902
0.00175000 0.418227
0.00181250 0.410953
0.00187500 0.404046
0.00193750 0.397476
0.00200000 0.391216
0.00209375 0.382357
0.00218750 0.374074
0.00228125 0.366307
0.00237500 0.359004
0.00246875 0.352121
0.00256250 0.345620
0.00265625 0.339466
0.00275000 0.333630
0.00284375 0.328084
0.00293750 0.322806
0.00303125 0.317775
0.00312500 0.312972
0.00321875 0.308380
0.00331250 0.303985
0.00340625 0.299773
0.00350000 0.295731
0.00359375 0.291848
0.00368750 0.288114
0.00378125 0.284520
0.00387500 0.281057
0.00396875 0.277718
0.00406250 0.274494
0.00425000 0.268371
0.00443750 0.262640
0.00462500 0.257261
0.00481250 0.252200
0.00500000 0.247426
0.00515625 0.243649
0.00531250 0.240039
0.00546875 0.236585
0.00562500 0.233276
0.00578125 0.230102
0.00593750 0.227054
0.00609375 0.224125
0.00625000 0.221305
0.00640625 0.218590
0.00656250 0.215972
0.00671875 0.213446
0.00687500 0.211007
0.00718750 0.206369
0.00750000 0.202024
0.00781250 0.197942
0.00812500 0.194098
0.00843750 0.190470
0.00875000 0.187038
0.00906250 0.183784
0.00937500 0.180695
0.00968750 0.177757
0.0100000 0.174958
0.0103125 0.172286
0.0106250 0.169734
0.0109375 0.167292
0.0112500 0.164952
0.0115625 0.162708
0.0118750 0.160553
0.0121875 0.158481
0.0125000 0.156488
0.0128125 0.154568
0.0131250 0.152717
0.0134375 0.150931
0.0137500 0.149206
0.0143750 0.145927
0.0150000 0.142855
0.0156250 0.139969
0.0162500 0.137251
0.0168750 0.134685
0.0175000 0.132258
0.0181250 0.129958
0.0187500 0.127773
0.0193750 0.125695
0.0200000 0.123716
0.0206625 0.121716
0.0213250 0.119810
0.0219875 0.117991
0.0226500 0.116253
0.0233125 0.114589
0.0239750 0.112995
0.0246375 0.111465
0.0253000 0.109996
0.0264578 0.107563
0.0276156 0.105284
0.0287734 0.103145
0.0299313 0.101131
0.0310891 0.0992303
0.0322469 0.0974333
0.0334047 0.0957306
0.0345625 0.0941141
0.0355274 0.0928277
0.0364922 0.0915927
0.0374570 0.0904055
0.0384219 0.0892633
0.0393867 0.0881632
0.0403516 0.0871028
0.0413164 0.0860797
0.0422813 0.0850918
0.0442109 0.0832139
0.0461406 0.0814550
0.0480703 0.0798031
0.0500000 0.0782479
0.0515625 0.0770532
0.0531250 0.0759115
0.0546875 0.0748192
0.0562500 0.0737728
0.0578125 0.0727692
0.0593750 0.0718055
0.0609375 0.0708792
0.0625000 0.0699880
0.0640625 0.0691297
0.0656250 0.0683023
0.0671875 0.0675040
0.0687500 0.0667330
0.0718750 0.0652672
0.0750000 0.0638937
0.0781250 0.0626031
0.0812500 0.0613876
0.0843750 0.0602400
0.0875000 0.0591545
0.0906250 0.0581256
0.0937500 0.0571487
0.0968750 0.0562194
0.100000 0.0553341
0.103125 0.0544893
0.106250 0.0536821
0.109375 0.0529097
0.112500 0.0521698
0.115625 0.0514601
0.118750 0.0507787
0.121875 0.0501237
0.125000 0.0494935
0.128125 0.0488867
0.131250 0.0483018
0.134375 0.0477375
0.137500 0.0471926
0.143750 0.0461565
0.150000 0.0451854
0.156250 0.0442728
0.162500 0.0434133
0.168750 0.0426019
0.175000 0.0418344
0.181250 0.0411071
0.187500 0.0404166
0.193750 0.0397601
0.200000 0.0391347
0.209375 0.0382496
0.218750 0.0374216
0.228125 0.0366449
0.237500 0.0359146
0.246875 0.0352264
0.256250 0.0345763
0.265625 0.0339610
0.275000 0.0333774
0.284375 0.0328229
0.293750 0.0322953
0.303125 0.0317923
0.312500 0.0313121
0.321875 0.0308531
0.331250 0.0304137
0.340625 0.0299926
0.350000 0.0295886
0.359375 0.0292005
0.368750 0.0288273
0.378125 0.0284681
0.387500 0.0281222
0.396875 0.0277889
0.406250 0.0274673
0.425000 0.0268562
0.443750 0.0262835
0.462500 0.0257458
0.500000 0.0247644
0.531250 0.0240274
0.562500 0.0233512
0.593750 0.0227290
0.625000 0.0221543
0.687500 0.0211248
0.750000 0.0202270
0.812500 0.0194352
0.875000 0.0187318
0.937500 0.0180999
1.00000 0.0175264
1.06250 0.0170044
1.12500 0.0165265
1.18750 0.0160871
1.25000 0.0156810
1.37500 0.0149539
1.50000 0.0143198
1.62500 0.0137606
1.75000 0.0132637
1.87500 0.0128174
2.00000 0.0124121
2.18750 0.0118710
2.37500 0.0113960
2.56250 0.0109744
2.75000 0.0105974
2.93750 0.0102573
3.12500 0.00994762
3.31250 0.00966473
3.50000 0.00940498
3.87500 0.00894350
4.25000 0.00854482
4.62500 0.00819592
5.00000 0.00788756
5.31250 0.00765614
5.62500 0.00744408
5.93750 0.00724912
6.25000 0.00706907
6.87500 0.00674680
7.50000 0.00646604
8.12500 0.00621861
8.75000 0.00599870
9.37500 0.00580138
10.0000 0.00562282
10.6250 0.00546045
11.2500 0.00531198
11.8750 0.00517556
12.5000 0.00504965
13.7500 0.00482451
15.0000 0.00462861
16.2500 0.00445621
17.5000 0.00430313
18.7500 0.00416598
20.0000 0.00404205
21.8750 0.00387704
23.7500 0.00373262
25.6250 0.00360489
27.5000 0.00349102
29.3750 0.00338869
31.2500 0.00329605
33.1250 0.00321178
35.0000 0.00313476
38.7500 0.00299882
42.5000 0.00288252
46.2500 0.00278177
50.0000 0.00269363
53.1250 0.00262818
56.2500 0.00256886
62.5000 0.00246562
68.7500 0.00237898
75.0000 0.00230545
81.2500 0.00224252
87.5000 0.00218836
93.7500 0.00214152
100.000 0.00210090
106.250 0.00206566
112.500 0.00203512
125.000 0.00198611
137.500 0.00195064
150.000 0.00192656
159.375 0.00191537
168.750 0.00190890
175.000 0.00190754
187.500 0.00191118
200.000 0.00192320
209.375 0.00193778
218.750 0.00195730
228.125 0.00198196
237.500 0.00201209
246.875 0.00204811
256.250 0.00209056
265.625 0.00214012
275.000 0.00219762
284.375 0.00226410
293.750 0.00234084
303.125 0.00242941
312.500 0.00253178
321.875 0.00265039
331.250 0.00278822
340.625 0.00294928
345.313 0.00304011
350.000 0.00313875
356.445 0.00328957
362.891 0.00345853
369.336 0.00364975
375.781 0.00386880
382.227 0.00411711
388.672 0.00440506
391.895 0.00456386
395.117 0.00473842
398.340 0.00492484
401.563 0.00512442
407.422 0.00553603
410.352 0.00576690
413.281 0.00601698
416.211 0.00628907
419.141 0.00658514
422.070 0.00690742
425.000 0.00725987
428.223 0.00768848
431.445 0.00816341
434.668 0.00869320
437.891 0.00928819
441.113 0.00995502
444.336 0.0107114
445.947 0.0111257
447.559 0.0115711
449.170 0.0120452
450.781 0.0125511
452.832 0.0132518
454.883 0.0140210
456.934 0.0148671
458.984 0.0157899
461.035 0.0168206
463.086 0.0179658
465.137 0.0192431
467.188 0.0206737
468.799 0.0219222
470.410 0.0232958
472.022 0.0248122
473.633 0.0264919
475.244 0.0283593
476.856 0.0304437
477.661 0.0315779
478.467 0.0327801
479.273 0.0340558
480.078 0.0354108
481.323 0.0376781
482.569 0.0401805
483.814 0.0429521
485.059 0.0460331
486.304 0.0494699
486.926 0.0513323
487.549 0.0533018
488.172 0.0553993
488.794 0.0576307
489.417 0.0600048
490.039 0.0625327
490.845 0.0660561
491.651 0.0698946
492.456 0.0740870
493.262 0.0786777
494.068 0.0837203
494.873 0.0892749
495.679 0.0954150
496.484 0.102224
496.924 0.106257
497.363 0.110537
497.803 0.115087
498.242 0.119928
498.682 0.125087
499.121 0.130591
499.561 0.136474
500.000 0.142769
500.587 0.151887
501.173 0.161920
501.760 0.172995
502.346 0.185252
502.933 0.198854
503.226 0.206230
503.520 0.214035
503.813 0.222305
504.106 0.231074
504.400 0.240381
504.693 0.250270
505.096 0.264908
505.499 0.280883
505.903 0.298364
506.306 0.317548
506.709 0.338663
507.113 0.361979
507.516 0.387813
507.919 0.416536
508.267 0.444022
508.616 0.474349
508.964 0.507921
509.312 0.545215
509.487 0.565437
509.661 0.586796
509.835 0.609408
510.009 0.633345
510.183 0.658746
510.357 0.685703
510.531 0.714368
510.705 0.744891
510.870 0.775683
511.035 0.808448
511.200 0.843356
511.365 0.880576
511.530 0.920366
511.695 0.962943
511.778 0.985360
511.860 1.00858
511.943 1.03264
512.025 1.05754
512.106 1.08270
512.186 1.10875
512.266 1.13576
512.346 1.16378
512.410 1.18697
512.474 1.21084
512.539 1.23544
512.630 1.27198
512.722 1.31014
512.814 1.35010
512.905 1.39190
513.006 1.44027
513.107 1.49118
513.208 1.54487
513.258 1.57282
513.308 1.60155
513.359 1.63114
513.409 1.66152
513.460 1.69276
513.510 1.72490
513.561 1.75798
513.611 1.79203
513.661 1.82710
513.712 1.86322
513.758 1.89707
513.803 1.93179
513.849 1.96757
513.895 2.00428
513.941 2.04213
513.987 2.08100
514.033 2.12100
514.078 2.16219
514.124 2.20471
514.170 2.24842
514.216 2.29347
514.262 2.33991
514.308 2.38791
514.353 2.43732
514.399 2.48831
514.445 2.54095
514.509 2.61766
514.573 2.69784
514.638 2.78198
514.702 2.87008
514.766 2.96267
514.830 3.05977
514.894 3.16201
514.958 3.26942
515.009 3.35805
515.059 3.45026
515.110 3.54642
515.160 3.64678
515.210 3.75159
515.261 3.86114
515.311 3.97572
515.362 4.09565
515.412 4.22154
515.462 4.35329
515.513 4.49154
515.563 4.63677
515.614 4.78946
515.664 4.95017
515.714 5.11950
515.765 5.29811
515.820 5.50449
515.875 5.72387
515.930 5.95744
515.985 6.20656
516.040 6.47277
516.095 6.75779
516.150 7.06364
516.205 7.39259
516.255 7.71724
516.306 8.06525
516.356 8.43994
516.407 8.84443
516.457 9.28234
516.507 9.75788
516.533 10.0113
516.558 10.2759
516.583 10.5527
516.608 10.8422
516.633 11.1455
516.659 11.4634
516.684 11.7970
516.709 12.1473
516.734 12.5156
516.759 12.9031
516.785 13.3112
516.810 13.7413
516.835 14.1952
516.860 14.6745
516.885 15.1810
516.911 15.7169
516.936 16.2842
516.961 16.8854
516.986 17.5228
517.011 18.1991
517.037 18.9202
517.062 19.6833
517.087 20.4946
517.112 21.3574
517.137 22.2755
517.163 23.2527
517.188 24.2932
517.213 25.4013
517.238 26.5864
517.264 27.8440
517.289 29.1836
517.314 30.6107
517.339 32.1305
517.364 33.7489
517.390 35.4718
517.415 37.3052
517.440 39.2553
517.465 41.3287
517.490 43.5317
517.516 45.8710
517.541 48.3533
517.566 50.9853
517.591 53.7735
517.616 56.7245
517.642 59.8450
517.667 63.1410
517.692 66.6187
517.717 70.2838
517.742 74.1417
517.768 78.1973
517.793 82.4552
517.818 86.9191
517.850 92.9087
517.882 99.2427
517.914 105.924
517.946 112.952
517.978 120.325
518.011 128.037
518.043 136.080
518.075 144.415
518.125 158.173
518.176 172.572
518.226 187.535
518.276 202.936
518.478 265.627
518.528 280.614
518.579 294.892
518.629 308.238
518.679 320.436
518.713 327.847
518.747 334.575
518.780 340.606
518.814 345.856
518.857 351.395
518.900 355.533
518.943 358.228
518.986 359.444
519.000 359.518
519.014 359.423
519.061 357.968
519.107 354.781
519.154 349.911
519.200 343.438
519.241 336.628
519.281 328.773
519.321 319.964
519.361 310.324
519.402 299.855
519.442 288.765
519.523 265.073
519.603 240.125
519.684 214.846
519.754 193.320
519.823 172.528
519.893 152.810
519.928 143.425
519.963 134.425
520.003 124.451
520.044 115.028
520.084 106.124
520.124 97.7879
520.165 89.9781
520.205 82.7264
520.245 76.0005
520.286 69.7843
520.308 66.5848
520.330 63.5425
520.352 60.6389
520.374 57.8698
520.396 55.2313
520.418 52.7191
520.440 50.3289
520.462 48.0563
520.484 45.8968
520.506 43.8461
520.528 41.8998
520.550 40.0534
520.572 38.3026
520.594 36.6432
520.616 35.0709
520.638 33.5817
520.678 31.0499
520.718 28.7662
520.759 26.6967
520.799 24.8307
520.839 23.1395
520.880 21.6133
520.920 20.2282
520.960 18.9759
521.001 17.8366
521.041 16.8036
521.082 15.8606
521.122 15.0023
521.162 14.2158
521.203 13.4969
521.243 12.8350
521.283 12.2273
521.324 11.6652
521.364 11.1466
521.404 10.6646
521.445 10.2179
521.485 9.80090
521.525 9.41267
521.566 9.04869
521.606 8.70845
521.646 8.38822
521.687 8.08776
521.727 7.80397
521.767 7.53681
521.848 7.04467
521.929 6.60260
521.995 6.27279
522.061 5.96900
522.127 5.68796
522.193 5.42732
522.259 5.18467
522.325 4.95897
522.391 4.74828
522.457 4.55125
522.523 4.36639
522.589 4.19320
522.655 4.03043
522.721 3.87722
522.787 3.73284
522.853 3.59657
522.919 3.46782
522.985 3.34602
523.066 3.20581
523.147 3.07442
523.227 2.95109
523.308 2.83518
523.389 2.72609
523.469 2.62328
523.550 2.52628
523.631 2.43464
523.792 2.26592
523.954 2.11438
524.115 1.97773
524.276 1.85406
524.372 1.78641
524.467 1.72243
524.658 1.60453
524.849 1.49846
525.039 1.40268
525.230 1.31583
525.421 1.23690
525.611 1.16492
525.802 1.09907
525.964 1.04762
526.125 0.999712
526.286 0.955022
526.448 0.913269
526.609 0.874203
526.771 0.837598
526.932 0.803252
527.093 0.770984
527.255 0.740627
527.416 0.712035
527.578 0.685073
527.739 0.659618
527.900 0.635560
528.062 0.612798
528.384 0.570817
528.707 0.533005
529.030 0.498837
529.353 0.467859
529.676 0.439693
529.998 0.413993
530.321 0.390485
530.644 0.368929
530.967 0.349121
531.231 0.334081
531.495 0.320002
531.759 0.306802
532.023 0.294408
532.287 0.282749
532.551 0.271765
532.815 0.261404
533.079 0.251619
533.344 0.242372
533.608 0.233625
534.136 0.217494
534.664 0.202980
535.192 0.189875
535.515 0.182482
535.838 0.175513
536.161 0.168937
536.483 0.162724
537.129 0.151286
537.775 0.141018
538.420 0.131761
539.066 0.123390
539.711 0.115794
540.357 0.108881
541.120 0.101483
541.883 0.0948169
542.646 0.0887890
543.409 0.0833223
544.172 0.0783542
544.934 0.0738323
545.697 0.0696844
546.460 0.0658715
547.106 0.0628854
547.751 0.0600995
548.397 0.0574963
549.043 0.0550607
549.688 0.0527778
550.334 0.0506355
550.979 0.0486226
551.625 0.0467291
552.270 0.0449451
552.916 0.0432628
553.562 0.0416746
554.207 0.0401738
555.498 0.0374090
556.789 0.0349247
558.081 0.0326841
559.372 0.0306568
560.663 0.0288163
561.954 0.0271407
563.245 0.0256107
564.536 0.0242101
565.827 0.0229248
567.118 0.0217424
568.234 0.0207958
569.349 0.0199129
571.579 0.0183196
573.809 0.0169109
576.039 0.0156668
578.269 0.0145619
580.499 0.0135758
582.729 0.0126921
584.960 0.0118979
587.542 0.0110754
590.124 0.0103413
592.706 0.00968411
595.289 0.00909404
597.871 0.00856120
600.453 0.00807944
603.035 0.00764218
605.618 0.00724383
609.843 0.00666554
614.069 0.00616713
618.294 0.00573011
622.520 0.00534616
626.745 0.00500718
630.971 0.00470665
635.196 0.00443932
639.422 0.00420088
644.586 0.00394377
649.751 0.00371666
654.916 0.00351603
660.080 0.00333890
665.245 0.00318030
670.409 0.00303920
680.738 0.00279868
690.598 0.00261288
700.457 0.00245784
710.317 0.00233013
720.176 0.00222232
730.036 0.00213172
739.895 0.00205656
749.755 0.00199281
759.615 0.00193895
770.883 0.00188886
782.151 0.00184936
804.687 0.00178981
827.223 0.00175805
849.759 0.00174462
868.539 0.00174780
887.319 0.00176130
906.100 0.00178442
924.880 0.00181706
943.660 0.00186056
962.440 0.00191426
981.220 0.00197887
1000.00 0.00205587
1024.33 0.00217963
1036.49 0.00225311
1048.66 0.00233600
1060.82 0.00243035
1072.99 0.00254043
1085.15 0.00266983
1097.31 0.00282879
1106.92 0.00298748
1116.52 0.00319707
1121.32 0.00333159
1126.12 0.00350227
1130.92 0.00372793
1135.73 0.00404726
1137.97 0.00424875
1140.21 0.00450204
1142.45 0.00482990
1144.69 0.00526818
1146.93 0.00585940
1149.17 0.00674491
1150.29 0.00735727
1151.41 0.00813890
1152.53 0.00915849
1153.65 0.0105155
1154.37 0.0116543
1155.09 0.0130946
1155.81 0.0149555
1156.53 0.0174066
1157.25 0.0207358
1157.61 0.0228640
1157.97 0.0254178
1158.33 0.0285266
1158.69 0.0323749
1159.05 0.0372323
1159.41 0.0435172
1159.69 0.0498280
1159.97 0.0580047
1160.11 0.0631044
1160.25 0.0691565
1160.39 0.0764960
1160.53 0.0856242
1160.67 0.0972958
1160.81 0.112641
1160.95 0.133334
1161.02 0.146409
1161.09 0.161805
1161.16 0.179990
1161.23 0.201509
1161.30 0.227002
1161.37 0.257207
1161.44 0.292970
1161.51 0.335252
1161.58 0.385129
1161.65 0.443798
1161.72 0.507292
1161.78 0.580627
1161.85 0.665005
1161.91 0.761682
1161.98 0.871953
1162.01 0.933559
1162.04 0.997127
1162.08 1.06680
1162.11 1.13850
1162.14 1.21687
1162.17 1.29731
1162.21 1.38499
1162.24 1.47473
1162.27 1.57226
1162.30 1.67179
1162.34 1.77963
1162.37 1.88934
1162.40 2.00784
1162.43 2.12802
1162.47 2.25742
1162.50 2.38820
1162.53 2.52855
1162.56 2.66993
1162.63 2.97287
1162.69 3.29631
1162.75 3.61204
1162.81 3.94295
1162.87 4.28741
1162.93 4.64341
1163.05 5.38032
1163.17 6.13090
1163.30 6.92777
1163.37 7.30824
1163.43 7.67008
1163.52 8.13109
1163.61 8.53419
1163.67 8.74700
1163.72 8.93149
1163.77 9.05990
1163.81 9.16698
1163.87 9.26770
1163.95 9.35223
1164.00 9.36830
1164.00 9.36818
1164.01 9.36705
1164.02 9.36475
1164.04 9.35716
1164.08 9.32935
1164.16 9.22024
1164.24 9.03804
1164.32 8.78558
1164.40 8.48774
1164.47 8.14488
1164.53 7.87043
1164.58 7.58255
1164.69 6.95743
1164.81 6.24335
1164.98 5.15164
1165.04 4.79605
1165.13 4.27176
1165.22 3.77795
1165.26 3.53939
1165.30 3.30917
1165.35 3.08777
1165.39 2.88030
1165.44 2.67741
1165.48 2.48422
1165.52 2.30087
1165.57 2.13122
1165.61 1.96735
1165.65 1.81322
1165.70 1.66867
1165.74 1.53647
1165.79 1.38819
1165.84 1.25466
1165.90 1.13238
1165.95 1.02077
1166.00 0.919246
1166.05 0.827182
1166.10 0.743951
1166.15 0.668922
1166.20 0.601472
1166.25 0.540994
1166.30 0.486897
1166.35 0.438618
1166.41 0.395619
1166.46 0.357394
1166.51 0.323467
1166.56 0.293397
1166.61 0.266285
1166.66 0.242792
1166.71 0.222021
1166.76 0.203662
1166.87 0.173078
1166.97 0.149113
1167.07 0.130233
1167.17 0.115238
1167.27 0.103198
1167.38 0.0934064
1167.49 0.0842601
1167.61 0.0767810
1167.84 0.0652993
1168.08 0.0567485
1168.31 0.0501158
1168.54 0.0447484
1168.78 0.0403420
1169.01 0.0366470
1169.24 0.0335086
1169.71 0.0284724
1170.18 0.0246507
1170.64 0.0216654
1171.11 0.0192986
1171.57 0.0173864
1172.04 0.0158130
1172.51 0.0145015
