Kr-86(n,tot) ENDFB-8.0
Energy(eV) XS(b)
1.00000E-05 34.2417
1.03125E-05 33.7302
1.06250E-05 33.2417
1.09375E-05 32.7744
1.12500E-05 32.3268
1.15625E-05 31.8977
1.18750E-05 31.4858
1.21875E-05 31.0899
1.25000E-05 30.7091
1.28125E-05 30.3425
1.31250E-05 29.9891
1.34375E-05 29.6483
1.37500E-05 29.3192
1.43750E-05 28.6939
1.50000E-05 28.1085
1.56250E-05 27.5590
1.62500E-05 27.0418
1.68750E-05 26.5540
1.75000E-05 26.0929
1.81250E-05 25.6561
1.87500E-05 25.2416
1.93750E-05 24.8476
2.00000E-05 24.4725
2.09375E-05 23.9420
2.18750E-05 23.4466
2.28125E-05 22.9825
2.37500E-05 22.5465
2.46875E-05 22.1361
2.56250E-05 21.7488
2.65625E-05 21.3825
2.75000E-05 21.0355
2.84375E-05 20.7061
2.93750E-05 20.3930
3.03125E-05 20.0947
3.12500E-05 19.8103
3.21875E-05 19.5387
3.31250E-05 19.2789
3.40625E-05 19.0302
3.50000E-05 18.7918
3.59375E-05 18.5630
3.68750E-05 18.3432
3.78125E-05 18.1319
3.87500E-05 17.9285
3.96875E-05 17.7325
4.06250E-05 17.5435
4.25000E-05 17.1850
4.43750E-05 16.8502
4.62500E-05 16.5365
4.81250E-05 16.2419
5.00000E-05 15.9646
5.15625E-05 15.7456
5.31250E-05 15.5367
5.46875E-05 15.3371
5.62500E-05 15.1461
5.78125E-05 14.9633
5.93750E-05 14.7880
6.09375E-05 14.6198
6.25000E-05 14.4582
6.40625E-05 14.3028
6.56250E-05 14.1532
6.71875E-05 14.0091
6.87500E-05 13.8702
7.18750E-05 13.6067
7.50000E-05 13.3606
7.81250E-05 13.1302
8.12500E-05 12.9139
8.43750E-05 12.7104
8.75000E-05 12.5185
9.06250E-05 12.3372
9.37500E-05 12.1655
9.68750E-05 12.0028
0.000100000 11.8482
0.000103125 11.7012
0.000106250 11.5612
0.000109375 11.4276
0.000112500 11.3000
0.000115625 11.1780
0.000118750 11.0612
0.000121875 10.9493
0.000125000 10.8419
0.000128125 10.7388
0.000131250 10.6397
0.000134375 10.5444
0.000137500 10.4526
0.000143750 10.2789
0.000150000 10.1172
0.000156250 9.96612
0.000162500 9.82473
0.000168750 9.69205
0.000175000 9.56729
0.000181250 9.44972
0.000187500 9.33874
0.000193750 9.23377
0.000200000 9.13435
0.000209375 8.99464
0.000218750 8.86511
0.000228125 8.74468
0.000237500 8.63240
0.000246875 8.52745
0.000256250 8.42913
0.000265625 8.33682
0.000275000 8.24997
0.000284375 8.16812
0.000293750 8.09083
0.000303125 8.01774
0.000312500 7.94850
0.000321875 7.88283
0.000331250 7.82044
0.000340625 7.76110
0.000350000 7.70460
0.000368750 7.59929
0.000387500 7.50316
0.000406250 7.41505
0.000425000 7.33400
0.000443750 7.25920
0.000462500 7.18995
0.000481250 7.12568
0.000500000 7.06585
0.000515625 7.01908
0.000531250 6.97486
0.000546875 6.93300
0.000562500 6.89331
0.000593750 6.81983
0.000625000 6.75328
0.000656250 6.69274
0.000687500 6.63745
0.000718750 6.58674
0.000750000 6.54009
0.000781250 6.49704
0.000812500 6.45718
0.000843750 6.42018
0.000875000 6.38575
0.000906250 6.35362
0.000937500 6.32359
0.000968750 6.29545
0.00100000 6.26903
0.00106250 6.22077
0.00112500 6.17779
0.00118750 6.13927
0.00125000 6.10456
0.00131250 6.07313
0.00137500 6.04453
0.00143750 6.01840
0.00150000 5.99443
0.00156250 5.97237
0.00162500 5.95200
0.00168750 5.93314
0.00175000 5.91561
0.00181250 5.89930
0.00187500 5.88406
0.00200000 5.85645
0.00209375 5.83790
0.00218750 5.82093
0.00228125 5.80536
0.00237500 5.79102
0.00246875 5.77776
0.00256250 5.76547
0.00275000 5.74341
0.00293750 5.72416
0.00312500 5.70722
0.00331250 5.69219
0.00350000 5.67877
0.00368750 5.66671
0.00387500 5.65582
0.00406250 5.64594
0.00425000 5.63692
0.00443750 5.62867
0.00462500 5.62108
0.00500000 5.60761
0.00531250 5.59784
0.00562500 5.58915
0.00593750 5.58138
0.00625000 5.57438
0.00656250 5.56804
0.00687500 5.56229
0.00718750 5.55703
0.00750000 5.55221
0.00812500 5.54367
0.00875000 5.53636
0.00937500 5.53002
0.0100000 5.52447
0.0106250 5.51957
0.0112500 5.51521
0.0118750 5.51132
0.0125000 5.50781
0.0137500 5.50174
0.0150000 5.49669
0.0162500 5.49241
0.0175000 5.48874
0.0187500 5.48556
0.0200000 5.48277
0.0213250 5.48018
0.0226500 5.47788
0.0239750 5.47584
0.0253000 5.47402
0.0274227 5.47146
0.0295453 5.46926
0.0316680 5.46736
0.0337906 5.46570
0.0359133 5.46423
0.0380359 5.46293
0.0422813 5.46071
0.0461406 5.45905
0.0500000 5.45764
0.0562500 5.45577
0.0625000 5.45427
0.0687500 5.45304
0.0750000 5.45202
0.0812500 5.45115
0.0875000 5.45041
0.0937500 5.44977
0.100000 5.44920
0.112500 5.44826
0.125000 5.44750
0.137500 5.44688
0.150000 5.44637
0.162500 5.44593
0.175000 5.44555
0.200000 5.44494
0.218750 5.44457
0.237500 5.44426
0.256250 5.44400
0.275000 5.44377
0.312500 5.44339
0.350000 5.44310
0.387500 5.44285
0.425000 5.44266
0.500000 5.44235
0.562500 5.44215
0.625000 5.44200
0.750000 5.44176
0.875000 5.44159
1.00000 5.44146
1.12500 5.44136
1.25000 5.44128
1.50000 5.44115
1.75000 5.44107
2.00000 5.44100
2.37500 5.44092
2.75000 5.44086
3.12500 5.44082
3.50000 5.44078
4.25000 5.44073
5.00000 5.44069
6.25000 5.44064
7.50000 5.44060
8.75000 5.44057
10.0000 5.44054
12.5000 5.44050
15.0000 5.44046
17.5000 5.44043
20.0000 5.44040
27.5000 5.44032
35.0000 5.44025
42.5000 5.44018
50.0000 5.44011
62.5000 5.43999
75.0000 5.43988
87.5000 5.43977
100.000 5.43966
125.000 5.43944
150.000 5.43922
175.000 5.43901
200.000 5.43879
275.000 5.43814
350.000 5.43749
425.000 5.43683
500.000 5.43618
625.000 5.43510
750.000 5.43401
875.000 5.43292
1000.00 5.43183
1250.00 5.42965
1500.00 5.42746
1750.00 5.42527
2000.00 5.42307
2750.00 5.41645
3500.00 5.40977
4250.00 5.40304
5000.00 5.39625
5052.24 5.39578
5104.48 5.39531
5156.72 5.39483
5208.96 5.39436
5261.19 5.39388
5287.31 5.39365
5313.43 5.39341
5339.55 5.39317
5365.67 5.39294
5378.73 5.39282
5391.79 5.39270
5417.91 5.39247
5432.16 5.39234
5446.40 5.39222
5460.65 5.39209
5474.90 5.39197
5489.14 5.39186
5496.27 5.39180
5503.39 5.39174
5510.51 5.39169
5517.64 5.39164
5524.76 5.39159
5531.88 5.39155
5537.23 5.39152
5542.57 5.39150
5547.91 5.39149
5553.25 5.39148
5558.60 5.39149
5563.94 5.39153
5566.61 5.39156
5569.28 5.39160
5571.95 5.39166
5574.62 5.39174
5577.00 5.39183
5579.37 5.39195
5581.75 5.39212
5584.12 5.39234
5586.50 5.39265
5587.68 5.39285
5588.87 5.39309
5590.06 5.39339
5591.25 5.39375
5592.43 5.39422
5593.62 5.39481
5594.66 5.39548
5595.70 5.39635
5596.74 5.39750
5597.78 5.39909
5598.30 5.40013
5598.82 5.40142
5599.34 5.40305
5599.85 5.40523
5600.11 5.40665
5600.37 5.40841
5600.63 5.41063
5600.89 5.41350
5601.15 5.41734
5601.41 5.42253
5601.67 5.42968
5601.93 5.43954
5602.16 5.45156
5602.40 5.46761
5602.63 5.48893
5602.86 5.51703
5603.09 5.55368
5603.32 5.60092
5603.56 5.66103
5603.79 5.73604
5604.02 5.82904
5604.13 5.88290
5604.25 5.94204
5604.37 6.00667
5604.48 6.07700
5604.60 6.15320
5604.71 6.23535
5604.83 6.32351
5604.95 6.41767
5605.06 6.51771
5605.18 6.62348
5605.29 6.73470
5605.41 6.85103
5605.64 7.09605
5605.81 7.28208
5605.98 7.47310
5606.31 7.85939
5606.48 8.04856
5606.64 8.23065
5606.81 8.40223
5606.98 8.55898
5607.11 8.67003
5607.24 8.76920
5607.37 8.85518
5607.50 8.92680
5607.62 8.97967
5607.74 9.01833
5607.87 9.04418
5607.98 9.05276
5608.00 9.05303
5608.06 9.05144
5608.11 9.04689
5608.22 9.02877
5608.31 9.00427
5608.40 8.97152
5608.50 8.92636
5608.60 8.87251
5608.70 8.80935
5608.80 8.73865
5608.94 8.63214
5609.09 8.49773
5609.24 8.35032
5609.39 8.19239
5609.54 8.02758
5610.14 7.33466
5610.35 7.09972
5610.56 6.87713
5610.77 6.66829
5610.98 6.47771
5611.19 6.30512
5611.40 6.15280
5611.61 6.01921
5611.82 5.90487
5612.03 5.80748
5612.24 5.72644
5612.45 5.65925
5612.66 5.60475
5612.87 5.56064
5613.08 5.52567
5613.29 5.49807
5613.50 5.47647
5613.73 5.45789
5613.97 5.44400
5614.20 5.43366
5614.43 5.42600
5614.67 5.42025
5614.90 5.41594
5615.14 5.41264
5615.37 5.41010
5615.61 5.40808
5615.84 5.40647
5616.31 5.40401
5616.78 5.40221
5617.25 5.40081
5617.72 5.39968
5618.19 5.39874
5619.12 5.39726
5620.06 5.39617
5621.00 5.39532
5622.07 5.39456
5623.15 5.39397
5624.22 5.39350
5625.29 5.39312
5626.36 5.39281
5627.43 5.39254
5629.58 5.39213
5631.72 5.39182
5633.87 5.39158
5636.01 5.39139
5638.16 5.39124
5640.57 5.39110
5642.98 5.39098
5645.39 5.39088
5647.81 5.39080
5652.63 5.39065
5657.46 5.39054
5662.28 5.39045
5667.11 5.39036
5671.93 5.39029
5676.76 5.39022
5683.19 5.39013
5689.62 5.39006
5696.06 5.38998
5702.49 5.38991
5708.92 5.38984
5715.36 5.38978
5728.22 5.38965
5741.09 5.38952
5753.96 5.38939
5766.83 5.38927
5779.69 5.38915
5798.99 5.38897
5818.29 5.38879
5837.59 5.38861
5856.89 5.38843
5876.19 5.38825
5895.49 5.38807
5914.79 5.38789
5934.09 5.38772
5972.69 5.38736
6011.29 5.38700
6088.49 5.38629
6142.11 5.38580
6195.72 5.38530
6302.94 5.38431
6517.39 5.38233
6946.28 5.37835
7804.07 5.37032
10000.0 5.34930
11341.5 5.33611
11364.4 5.33589
11387.3 5.33566
11410.3 5.33544
11433.2 5.33521
11444.7 5.33510
11456.1 5.33499
11467.6 5.33488
11479.1 5.33477
11490.6 5.33466
11502.0 5.33455
11513.5 5.33444
11519.2 5.33439
11525.0 5.33434
11531.7 5.33428
11538.4 5.33423
11545.1 5.33417
11551.9 5.33412
11558.6 5.33408
11565.3 5.33405
11568.7 5.33403
11572.0 5.33403
11575.4 5.33402
11578.7 5.33403
11581.7 5.33404
11584.7 5.33407
11587.7 5.33411
11590.6 5.33417
11593.6 5.33427
11595.1 5.33433
11596.5 5.33442
11598.0 5.33452
11599.5 5.33465
11601.0 5.33482
11602.5 5.33504
11603.8 5.33530
11605.0 5.33563
11606.3 5.33610
11607.0 5.33640
11607.6 5.33678
11608.3 5.33729
11608.9 5.33800
11609.2 5.33849
11609.5 5.33910
11609.9 5.33990
11610.2 5.34095
11610.5 5.34240
11610.8 5.34430
11611.2 5.34686
11611.5 5.35030
11611.8 5.35493
11612.1 5.36111
11612.4 5.36928
11612.8 5.38000
11613.0 5.39195
11613.3 5.40621
11613.6 5.42362
11613.8 5.44467
11614.1 5.47087
11614.4 5.50084
11614.7 5.53589
11614.9 5.57641
11615.2 5.62449
11615.5 5.67687
11615.8 5.73515
11616.0 5.79912
11616.3 5.86836
11616.6 5.94219
11617.1 6.09978
11617.5 6.22603
11617.9 6.34892
11618.4 6.46169
11618.8 6.55748
11619.2 6.62278
11619.5 6.66653
11619.8 6.68511
11620.0 6.68740
11620.2 6.68497
11620.5 6.66783
11620.7 6.64014
11621.0 6.60131
11621.2 6.55240
11621.5 6.49467
11621.8 6.42961
11622.1 6.35033
11622.3 6.26618
11622.9 6.09219
11623.5 5.92384
11623.8 5.84577
11624.1 5.77328
11624.4 5.69633
11624.8 5.63051
11625.1 5.57192
11625.4 5.52374
11625.8 5.48244
11626.1 5.44970
11626.4 5.42331
11626.8 5.40237
11627.1 5.38557
11627.4 5.37306
11627.8 5.36355
11628.1 5.35640
11628.3 5.35346
11628.4 5.35094
11628.8 5.34704
11629.1 5.34418
11629.4 5.34208
11629.6 5.34104
11629.8 5.34022
11630.2 5.33894
11630.6 5.33804
11631.0 5.33740
11631.5 5.33690
11631.9 5.33653
11632.7 5.33596
11633.5 5.33554
11634.3 5.33522
11635.1 5.33496
11635.9 5.33475
11637.5 5.33441
11639.1 5.33417
11640.8 5.33398
11642.4 5.33383
11644.2 5.33369
11646.1 5.33358
11648.0 5.33348
11649.8 5.33340
11651.7 5.33334
11653.5 5.33328
11657.2 5.33318
11660.9 5.33310
11664.6 5.33302
11668.3 5.33296
11672.0 5.33290
11677.1 5.33283
11682.2 5.33276
11687.3 5.33270
11692.4 5.33264
11697.5 5.33258
11702.6 5.33252
11712.8 5.33241
11723.0 5.33230
11733.2 5.33220
11743.4 5.33209
11753.6 5.33199
11771.2 5.33181
11788.8 5.33163
11806.4 5.33145
11824.0 5.33127
11859.3 5.33092
11894.5 5.33056
11929.7 5.33021
11964.9 5.32986
12035.4 5.32915
12102.1 5.32847
12168.8 5.32780
12302.3 5.32645
12569.2 5.32374
12895.4 5.32041
13221.7 5.31706
13874.2 5.31029
14526.6 5.30343
15179.1 5.29649
15460.9 5.29346
15742.6 5.29043
16024.4 5.28738
16306.1 5.28433
16587.9 5.28129
16869.6 5.27828
17151.4 5.27531
17292.3 5.27387
17433.1 5.27247
17536.9 5.27148
17640.7 5.27053
17744.5 5.26964
17848.3 5.26881
17952.2 5.26810
18056.0 5.26755
18159.8 5.26722
18263.6 5.26720
18359.9 5.26767
18408.1 5.26811
18456.3 5.26879
18504.5 5.26973
18552.7 5.27105
18600.9 5.27286
18649.1 5.27529
18697.3 5.27870
18745.5 5.28336
18793.7 5.29002
18817.8 5.29441
18841.9 5.29974
18871.6 5.30803
18901.2 5.31892
18930.9 5.33349
18960.5 5.35366
18980.0 5.37133
18999.5 5.39403
19018.9 5.42385
19038.4 5.46389
19048.6 5.49069
19058.8 5.52280
19069.0 5.56178
19079.2 5.60962
19089.4 5.66929
19099.5 5.74486
19109.7 5.84266
19119.9 5.97181
19125.0 6.05261
19130.1 6.14779
19135.2 6.26075
19140.3 6.39589
19145.4 6.56006
19150.5 6.76174
19153.1 6.88030
19155.6 7.01323
19158.2 7.16291
19160.7 7.33157
19164.4 7.62050
19166.3 7.78819
19168.1 7.97299
19170.0 8.17961
19171.8 8.40911
19173.7 8.66649
19175.5 8.95641
19176.8 9.17896
19178.1 9.41999
19179.4 9.68583
19180.6 9.97522
19181.9 10.2962
19183.2 10.6476
19184.5 11.0398
19185.7 11.4722
19187.0 11.9581
19188.3 12.4978
19189.6 13.1093
19190.8 13.7943
19192.1 14.5775
19193.4 15.4633
19194.0 15.9571
19194.7 16.4781
19195.3 17.0462
19195.9 17.6474
19196.7 18.4337
19197.4 19.2829
19198.2 20.2266
19199.0 21.2505
19199.7 22.3938
19200.5 23.6401
19201.2 25.0189
19202.0 26.5478
19202.6 27.9859
19203.2 29.5615
19203.9 31.2896
19204.5 33.1558
19205.2 35.2368
19205.8 37.4858
19206.4 39.9936
19207.1 42.7007
19207.7 45.7121
19208.3 49.0042
19209.0 52.5913
19209.6 56.4196
19210.2 60.6133
19210.9 65.0353
19211.5 69.8081
19212.1 74.7520
19212.9 80.9750
19213.7 87.2902
19215.2 99.8471
19215.9 105.722
19216.7 111.053
19217.4 115.629
19217.8 117.595
19218.2 119.253
19218.6 120.964
19219.1 122.182
19219.5 122.927
19220.0 123.186
19220.4 123.028
19220.8 122.537
19221.1 121.718
19221.5 120.617
19221.9 119.186
19222.3 117.519
19222.6 115.544
19223.0 113.388
19223.8 108.336
19224.5 102.704
19225.3 96.6437
19226.0 90.3573
19227.1 81.1041
19228.2 72.2142
19228.8 68.0084
19229.3 63.9985
19229.9 60.2011
19230.4 56.6260
19230.9 53.4535
19231.5 50.4817
19232.0 47.7063
19232.5 45.1208
19233.0 42.7168
19233.5 40.4847
19234.1 38.4144
19234.6 36.4953
19235.3 34.1003
19236.0 31.9416
19236.7 29.9947
19237.4 28.2605
19238.1 26.6689
19238.8 25.2274
19239.5 23.9193
19240.2 22.7460
19240.8 21.9417
19241.3 21.1895
19241.8 20.4854
19242.3 19.8255
19243.4 18.6248
19244.4 17.5730
19245.4 16.6298
19246.5 15.7892
19247.5 15.0372
19248.5 14.3681
19249.6 13.7592
19250.6 13.2089
19251.7 12.7099
19252.7 12.2604
19253.7 11.8463
19254.8 11.4678
19255.8 11.1209
19256.8 10.8051
19258.6 10.3115
19260.4 9.88303
19262.2 9.50676
19264.0 9.17445
19265.8 8.87955
19267.6 8.61669
19269.4 8.38143
19271.2 8.17006
19273.3 7.95036
19275.3 7.75554
19277.4 7.58037
19279.5 7.42375
19283.6 7.15405
19287.8 6.93186
19292.3 6.73124
19296.8 6.56474
19301.4 6.42513
19305.9 6.30716
19314.2 6.13236
19322.5 5.99786
19330.8 5.89218
19339.1 5.80762
19347.4 5.73888
19355.7 5.68224
19372.3 5.59522
19387.4 5.53734
19402.5 5.49290
19417.5 5.45809
19432.6 5.43031
19456.8 5.39619
19480.9 5.37091
19493.0 5.36067
19523.2 5.34002
19553.4 5.32448
19586.6 5.31146
19619.8 5.30139
19653.0 5.29340
19686.1 5.28694
19719.3 5.28164
19752.5 5.27716
19785.7 5.27335
19818.9 5.27010
19885.3 5.26475
19951.7 5.26053
20000.0 5.25797
20068.2 5.25489
20136.4 5.25224
20204.6 5.24995
20272.8 5.24790
20409.2 5.24436
20545.6 5.24132
20704.7 5.23817
20863.8 5.23529
21023.0 5.23259
21182.1 5.23002
21500.4 5.22511
21818.6 5.22037
22182.3 5.21506
22546.0 5.20976
22909.8 5.20446
23091.6 5.20179
23569.0 5.19473
23807.7 5.19115
24046.4 5.18755
24285.1 5.18392
24523.8 5.18027
24762.5 5.17661
24881.8 5.17479
25001.1 5.17298
25066.5 5.17200
25131.9 5.17103
25197.2 5.17007
25262.6 5.16914
25327.9 5.16824
25360.6 5.16781
25393.3 5.16740
25426.0 5.16701
25458.6 5.16665
25491.3 5.16632
25524.0 5.16605
25546.7 5.16591
25569.5 5.16581
25592.2 5.16579
25614.9 5.16585
25637.7 5.16605
25649.0 5.16622
25660.4 5.16645
25671.8 5.16676
25683.1 5.16718
25694.5 5.16775
25705.9 5.16851
25714.0 5.16922
25722.2 5.17010
25730.4 5.17124
25738.5 5.17274
25746.7 5.17474
25750.8 5.17601
25754.9 5.17750
25759.0 5.17929
25763.0 5.18145
25767.1 5.18408
25771.2 5.18735
25774.8 5.19094
25778.3 5.19546
25781.9 5.20126
25785.4 5.20891
25789.0 5.21937
25790.8 5.22611
25792.5 5.23419
25794.3 5.24413
25796.1 5.25647
25797.9 5.27234
25799.6 5.29320
25801.0 5.31554
25802.5 5.34613
25803.2 5.36640
25803.9 5.39181
25804.6 5.42473
25805.3 5.46878
25806.0 5.52951
25806.4 5.56917
25806.7 5.61516
25807.1 5.67176
25807.4 5.73769
25807.8 5.81903
25808.1 5.91379
25808.5 6.03044
25808.9 6.16580
25809.2 6.33144
25809.6 6.52221
25809.9 6.75357
25810.3 7.01731
25810.6 7.33351
25811.0 7.68948
25811.3 8.02409
25811.6 8.39736
25811.9 8.81163
25812.1 9.26897
25812.4 9.77107
25812.7 10.3192
25813.0 10.9140
25813.3 11.5326
25813.6 12.2186
25813.9 12.9492
25814.2 13.7220
25814.5 14.5337
25815.0 16.2556
25815.6 18.0374
25816.5 20.9799
25817.0 22.4005
25817.5 23.6919
25817.7 24.3379
25818.0 24.9134
25818.2 25.4604
25818.4 25.9299
25818.7 26.3874
25819.0 26.7520
25819.2 27.0088
25819.4 27.1945
25819.6 27.3198
25819.9 27.3821
25820.0 27.3920
25820.4 27.2933
25820.7 27.0498
25821.1 26.5691
25821.5 26.0246
25821.8 25.3804
25822.1 24.6343
25822.4 23.8258
25822.8 22.9186
25823.1 21.9818
25823.5 20.8784
25823.8 19.7734
25824.5 17.5384
25824.9 16.4090
25825.2 15.3425
25825.6 14.3187
25825.9 13.3467
25826.4 12.1353
25826.6 11.5848
25826.8 11.0634
25827.1 10.5715
25827.3 10.1093
25827.5 9.67657
25827.8 9.27307
25828.0 8.88250
25828.2 8.53657
25828.5 8.21746
25828.7 7.92406
25828.9 7.65520
25829.2 7.40959
25829.4 7.18592
25829.6 6.98283
25829.9 6.79137
25830.1 6.62609
25830.5 6.34354
25831.0 6.11655
25831.5 5.93569
25831.9 5.79255
25832.4 5.67984
25832.8 5.59135
25833.3 5.52194
25833.7 5.47381
25834.1 5.43467
25834.5 5.40268
25834.9 5.37638
25835.7 5.33633
25836.5 5.30775
25837.3 5.28647
25838.1 5.26999
25839.7 5.24588
25841.3 5.22891
25842.9 5.21627
25844.5 5.20655
25846.1 5.19892
25848.2 5.19109
25850.3 5.18510
25852.4 5.18041
25854.5 5.17668
25856.6 5.17366
25858.6 5.17119
25862.8 5.16740
25867.0 5.16468
25871.2 5.16269
25875.4 5.16120
25879.6 5.16006
25884.7 5.15898
25889.9 5.15817
25895.1 5.15755
25900.2 5.15706
25905.4 5.15666
25910.6 5.15634
25920.9 5.15585
25931.2 5.15550
25941.6 5.15522
25951.9 5.15501
25962.2 5.15482
25977.0 5.15459
25991.7 5.15438
26006.5 5.15419
26021.3 5.15400
26036.0 5.15382
26050.8 5.15363
26065.6 5.15345
26080.3 5.15326
26109.8 5.15288
26139.4 5.15250
26168.9 5.15210
26198.4 5.15170
26237.8 5.15116
26277.1 5.15061
26316.5 5.15005
26355.9 5.14950
26434.6 5.14838
26513.3 5.14728
26599.9 5.14610
26686.5 5.14497
26773.1 5.14391
26859.7 5.14298
26946.3 5.14221
27032.9 5.14171
27076.2 5.14158
27119.5 5.14160
27162.8 5.14171
27206.1 5.14204
27241.6 5.14250
27277.0 5.14316
27312.4 5.14409
27347.9 5.14536
27383.3 5.14707
27418.7 5.14937
27454.2 5.15245
27489.6 5.15673
27525.0 5.16271
27542.7 5.16659
27560.4 5.17128
27578.2 5.17698
27595.9 5.18398
27613.6 5.19265
27631.3 5.20372
27650.0 5.21896
27668.7 5.23944
27678.0 5.25243
27687.4 5.26787
27696.7 5.28628
27706.1 5.30870
27716.9 5.34135
27727.7 5.38379
27738.6 5.44047
27749.4 5.51845
27755.8 5.57917
27762.2 5.65520
27768.6 5.75286
27775.0 5.88061
27779.6 6.00111
27784.3 6.15342
27786.7 6.24512
27789.0 6.34981
27791.3 6.47011
27793.7 6.60875
27796.4 6.79935
27799.1 7.02907
27800.4 7.16241
27801.8 7.31052
27803.1 7.47570
27804.5 7.66071
27805.8 7.86070
27807.1 8.08397
27808.4 8.33838
27809.7 8.62542
27811.0 8.95633
27812.3 9.33454
27813.5 9.77321
27814.2 10.0214
27814.8 10.2863
27815.5 10.5928
27816.2 10.9230
27816.9 11.2908
27817.5 11.6897
27818.2 12.1368
27818.9 12.6253
27819.6 13.1769
27820.2 13.7844
27820.9 14.4765
27821.6 15.2576
27822.3 16.1434
27822.9 17.1368
27823.3 17.6935
27823.6 18.2897
27824.0 18.9291
27824.3 19.6153
27824.6 20.3524
27825.0 21.1450
27825.3 21.9978
27825.7 22.8879
27826.2 24.3649
27826.6 25.9784
27827.1 27.7750
27827.6 29.7743
27828.1 31.9962
27828.6 34.4606
27829.1 37.1867
27829.6 40.1917
27829.9 42.4485
27830.3 44.8505
27830.6 47.4001
27830.9 50.0986
27831.3 52.9455
27831.6 55.9385
27832.0 59.0732
27832.3 62.2450
27833.0 69.1442
27833.6 76.3323
27835.0 91.3757
27835.8 100.316
27836.2 104.559
27836.6 108.478
27837.0 112.212
27837.4 115.602
27837.9 118.594
27838.3 121.083
27838.7 123.281
27839.1 124.872
27839.6 125.823
27840.0 126.115
27840.4 125.845
27840.8 125.081
27841.1 123.837
27841.5 122.131
27841.9 119.987
27842.3 117.439
27842.7 114.521
27843.0 111.365
27843.4 107.938
27843.8 104.283
27844.5 96.4610
27846.0 80.0535
27846.7 71.7279
27847.5 63.8358
27847.9 60.1069
27848.3 56.5433
27848.6 53.1555
27849.0 49.9503
27849.4 46.8542
27849.8 44.0266
27850.2 41.3837
27850.6 38.9214
27850.9 36.6339
27851.3 34.5141
27851.7 32.5537
27852.1 30.7441
27852.4 29.4159
