Sr-87(n,tot) ENDFB-8.0
Energy(eV) XS(b)
1.00000E-05 839.201
1.03125E-05 826.403
1.06250E-05 814.173
1.09375E-05 802.472
1.12500E-05 791.262
1.15625E-05 780.510
1.18750E-05 770.185
1.21875E-05 760.260
1.25000E-05 750.710
1.28125E-05 741.512
1.31250E-05 732.644
1.34375E-05 724.087
1.37500E-05 715.824
1.43750E-05 700.115
1.50000E-05 685.398
1.56250E-05 671.574
1.62500E-05 658.555
1.68750E-05 646.268
1.75000E-05 634.644
1.81250E-05 623.628
1.87500E-05 613.168
1.93750E-05 603.218
2.00000E-05 593.739
2.09375E-05 580.324
2.18750E-05 567.783
2.28125E-05 556.023
2.37500E-05 544.967
2.46875E-05 534.547
2.56250E-05 524.705
2.65625E-05 515.389
2.75000E-05 506.555
2.84375E-05 498.161
2.93750E-05 490.173
3.03125E-05 482.558
3.12500E-05 475.290
3.21875E-05 468.341
3.31250E-05 461.690
3.40625E-05 455.316
3.50000E-05 449.200
3.59375E-05 443.325
3.68750E-05 437.676
3.78125E-05 432.239
3.87500E-05 427.000
3.96875E-05 421.949
4.06250E-05 417.073
4.25000E-05 407.812
4.43750E-05 399.144
4.62500E-05 391.010
4.81250E-05 383.357
5.00000E-05 376.139
5.15625E-05 370.428
5.31250E-05 364.971
5.46875E-05 359.750
5.62500E-05 354.749
5.78125E-05 349.952
5.93750E-05 345.346
6.09375E-05 340.919
6.25000E-05 336.659
6.40625E-05 332.556
6.56250E-05 328.601
6.71875E-05 324.785
6.87500E-05 321.101
7.18750E-05 314.096
7.50000E-05 307.534
7.81250E-05 301.372
8.12500E-05 295.569
8.43750E-05 290.093
8.75000E-05 284.913
9.06250E-05 280.004
9.37500E-05 275.344
9.68750E-05 270.912
0.000100000 266.689
0.000103125 262.661
0.000106250 258.812
0.000109375 255.130
0.000112500 251.603
0.000115625 248.221
0.000118750 244.973
0.000121875 241.852
0.000125000 238.848
0.000128125 235.956
0.000131250 233.168
0.000134375 230.478
0.000137500 227.881
0.000143750 222.944
0.000150000 218.320
0.000156250 213.978
0.000162500 209.889
0.000168750 206.031
0.000175000 202.383
0.000181250 198.926
0.000187500 195.644
0.000193750 192.522
0.000200000 189.549
0.000209375 185.343
0.000218750 181.412
0.000228125 177.727
0.000237500 174.264
0.000246875 171.001
0.000256250 167.919
0.000265625 165.004
0.000275000 162.239
0.000284375 159.614
0.000293750 157.115
0.000303125 154.735
0.000312500 152.463
0.000321875 150.292
0.000331250 148.214
0.000340625 146.223
0.000350000 144.313
0.000359375 142.479
0.000368750 140.716
0.000378125 139.019
0.000387500 137.385
0.000396875 135.809
0.000406250 134.289
0.000425000 131.402
0.000443750 128.701
0.000462500 126.167
0.000481250 123.784
0.000500000 121.537
0.000515625 119.760
0.000531250 118.062
0.000546875 116.439
0.000562500 114.884
0.000578125 113.393
0.000593750 111.961
0.000609375 110.586
0.000625000 109.263
0.000640625 107.989
0.000656250 106.761
0.000671875 105.576
0.000687500 104.433
0.000718750 102.260
0.000750000 100.225
0.000781250 98.3145
0.000812500 96.5162
0.000843750 94.8196
0.000875000 93.2154
0.000906250 91.6957
0.000937500 90.2531
0.000968750 88.8815
0.00100000 87.5752
0.00103125 86.3292
0.00106250 85.1391
0.00109375 84.0007
0.00112500 82.9104
0.00115625 81.8650
0.00118750 80.8615
0.00121875 79.8971
0.00125000 78.9693
0.00128125 78.0760
0.00131250 77.2150
0.00134375 76.3845
0.00137500 75.5826
0.00143750 74.0586
0.00150000 72.6316
0.00156250 71.2916
0.00162500 70.0303
0.00168750 68.8402
0.00175000 67.7148
0.00181250 66.6486
0.00187500 65.6365
0.00193750 64.6741
0.00200000 63.7575
0.00209375 62.4607
0.00218750 61.2488
0.00228125 60.1129
0.00237500 59.0453
0.00246875 58.0394
0.00256250 57.0896
0.00265625 56.1909
0.00275000 55.3388
0.00284375 54.5294
0.00293750 53.7593
0.00303125 53.0254
0.00312500 52.3250
0.00321875 51.6556
0.00331250 51.0150
0.00340625 50.4011
0.00350000 49.8123
0.00359375 49.2467
0.00368750 48.7030
0.00378125 48.1797
0.00387500 47.6757
0.00396875 47.1897
0.00406250 46.7207
0.00425000 45.8300
0.00443750 44.9966
0.00462500 44.2147
0.00481250 43.4792
0.00500000 42.7857
0.00515625 42.2371
0.00531250 41.7130
0.00546875 41.2116
0.00562500 40.7314
0.00578125 40.2708
0.00593750 39.8287
0.00609375 39.4038
0.00625000 38.9950
0.00640625 38.6013
0.00656250 38.2218
0.00671875 37.8557
0.00687500 37.5023
0.00718750 36.8304
0.00750000 36.2012
0.00781250 35.6103
0.00812500 35.0540
0.00843750 34.5291
0.00875000 34.0327
0.00906250 33.5624
0.00937500 33.1159
0.00968750 32.6912
0.0100000 32.2868
0.0103125 31.9010
0.0106250 31.5324
0.0109375 31.1799
0.0112500 30.8422
0.0115625 30.5184
0.0118750 30.2076
0.0121875 29.9088
0.0125000 29.6214
0.0128125 29.3447
0.0131250 29.0779
0.0134375 28.8206
0.0137500 28.5721
0.0143750 28.0999
0.0150000 27.6577
0.0156250 27.2424
0.0162500 26.8515
0.0168750 26.4826
0.0175000 26.1338
0.0181250 25.8034
0.0187500 25.4897
0.0193750 25.1914
0.0200000 24.9073
0.0206625 24.6204
0.0213250 24.3472
0.0219875 24.0865
0.0226500 23.8374
0.0233125 23.5991
0.0239750 23.3708
0.0246375 23.1519
0.0253000 22.9418
0.0264578 22.5938
0.0276156 22.2682
0.0287734 21.9626
0.0299313 21.6752
0.0310891 21.4042
0.0322469 21.1480
0.0334047 20.9054
0.0345625 20.6753
0.0355274 20.4922
0.0364922 20.3166
0.0374570 20.1478
0.0384219 19.9855
0.0393867 19.8293
0.0403516 19.6788
0.0422813 19.3936
0.0442109 19.1275
0.0461406 18.8785
0.0480703 18.6449
0.0500000 18.4252
0.0515625 18.2566
0.0531250 18.0956
0.0546875 17.9417
0.0562500 17.7943
0.0578125 17.6531
0.0593750 17.5177
0.0609375 17.3876
0.0625000 17.2626
0.0640625 17.1422
0.0656250 17.0263
0.0687500 16.8067
0.0718750 16.6018
0.0750000 16.4102
0.0781250 16.2304
0.0812500 16.0614
0.0843750 15.9021
0.0875000 15.7517
0.0906250 15.6093
0.0937500 15.4744
0.0968750 15.3463
0.100000 15.2245
0.103125 15.1084
0.106250 14.9977
0.109375 14.8920
0.112500 14.7909
0.115625 14.6941
0.118750 14.6014
0.121875 14.5124
0.125000 14.4269
0.128125 14.3448
0.131250 14.2658
0.137500 14.1163
0.143750 13.9771
0.150000 13.8472
0.156250 13.7256
0.162500 13.6116
0.168750 13.5043
0.175000 13.4034
0.181250 13.3081
0.187500 13.2180
0.193750 13.1327
0.200000 13.0519
0.209375 12.9381
0.218750 12.8324
0.228125 12.7340
0.237500 12.6421
0.246875 12.5562
0.256250 12.4757
0.265625 12.4001
0.275000 12.3290
0.284375 12.2621
0.293750 12.1989
0.303125 12.1393
0.312500 12.0828
0.321875 12.0294
0.331250 11.9788
0.340625 11.9308
0.350000 11.8853
0.359375 11.8420
0.368750 11.8010
0.387500 11.7247
0.406250 11.6554
0.425000 11.5923
0.443750 11.5350
0.462500 11.4829
0.500000 11.3925
0.531250 11.3293
0.562500 11.2754
0.625000 11.1918
0.687500 11.1355
0.750000 11.1019
0.781250 11.0926
0.828125 11.0872
0.875000 11.0920
0.937500 11.1121
1.00000 11.1470
1.06250 11.1967
1.12500 11.2610
1.18750 11.3401
1.25000 11.4343
1.31250 11.5445
1.37500 11.6714
1.43750 11.8165
1.50000 11.9811
1.56250 12.1672
1.62500 12.3771
1.68750 12.6135
1.75000 12.8796
1.81250 13.1795
1.87500 13.5179
1.93750 13.9004
2.00000 14.3328
2.05575 14.7683
2.11150 15.2594
2.16725 15.8141
2.19513 16.1185
2.22300 16.4429
2.25088 16.7892
2.27875 17.1591
2.30663 17.5549
2.33450 17.9787
2.36238 18.4330
2.39025 18.9202
2.41813 19.4442
2.44600 20.0097
2.47666 20.6851
2.50733 21.4223
2.53799 22.2287
2.56865 23.1129
2.59931 24.0852
2.62998 25.1575
2.66064 26.3441
2.69130 27.6616
2.72196 29.1299
2.75263 30.7727
2.76796 31.6684
2.78329 32.6189
2.79862 33.6288
2.81395 34.7032
2.82928 35.8477
2.84461 37.0683
2.85994 38.3719
2.87528 39.7662
2.89061 41.2597
2.90594 42.8617
2.92127 44.5827
2.93660 46.4350
2.95333 48.6218
2.97005 51.0022
2.98678 53.6000
3.00350 56.4429
3.02023 59.5623
3.03695 62.9949
3.05368 66.7833
3.07040 70.9776
3.08573 75.2298
3.10106 79.9265
3.11639 85.1313
3.13173 90.9190
3.13939 94.0588
3.14706 97.3788
3.15472 100.893
3.16239 104.616
3.17005 108.565
3.17772 112.757
3.18539 117.213
3.19305 121.954
3.19967 126.297
3.20629 130.887
3.21291 135.745
3.21953 140.887
3.22615 146.339
3.23277 152.121
3.23939 158.261
3.24601 164.788
3.25263 171.733
3.25925 179.127
3.26587 187.010
3.27249 195.421
3.27912 204.404
3.28574 214.005
3.29236 224.277
3.29898 235.274
3.30664 248.993
3.31431 263.864
3.32197 279.993
3.32964 297.490
3.33730 316.476
3.34497 337.067
3.35264 359.387
3.36030 383.547
3.36588 402.338
3.37354 429.925
3.38121 459.603
3.38887 491.414
3.39654 525.354
3.40420 561.381
3.41187 599.370
3.41954 639.141
3.42720 680.408
3.43604 729.351
3.44487 779.068
3.45370 828.681
3.46254 877.140
3.47137 923.300
3.48021 965.920
3.48904 1003.77
3.49788 1035.65
3.50591 1058.58
3.51394 1075.04
3.52197 1084.57
3.53000 1086.88
3.53442 1085.05
3.53884 1081.02
3.54767 1066.57
3.55650 1044.06
3.56534 1014.28
3.57417 978.228
3.58301 937.062
3.59184 891.995
3.60068 844.249
3.60870 799.553
3.61672 754.418
3.62474 709.547
3.63276 665.540
3.64078 622.887
3.64880 581.967
3.65682 543.053
3.66484 506.325
3.67219 474.699
3.67953 445.019
3.68688 417.261
3.69422 391.390
3.70156 367.330
3.70891 345.003
3.71625 324.313
3.72359 305.157
3.73227 284.355
3.74095 265.386
3.74963 248.082
3.75831 232.293
3.76698 217.871
3.77566 204.686
3.78434 192.615
3.79302 181.550
3.80036 172.898
3.80771 164.841
3.81505 157.328
3.82239 150.316
3.82974 143.763
3.83708 137.633
3.84442 131.891
3.85177 126.507
3.85911 121.452
3.86645 116.703
3.87380 112.234
3.88114 108.027
3.88848 104.060
3.89583 100.318
3.90317 96.7828
3.91051 93.4409
3.91786 90.2782
3.92520 87.2831
3.93989 81.7497
3.95457 76.7607
3.96926 72.2484
3.98395 68.1543
3.99863 64.4292
4.01332 61.0309
4.02801 57.9228
4.03802 55.9535
4.04804 54.0953
4.05805 52.3401
4.06806 50.6809
4.07808 49.1103
4.08809 47.6227
4.10812 44.8730
4.12814 42.3915
4.14817 40.1445
4.16820 38.1032
4.18823 36.2435
4.20291 34.9830
4.21760 33.8018
4.23229 32.6934
4.24697 31.6523
4.26166 30.6729
4.27635 29.7506
4.29103 28.8811
4.30572 28.0604
4.32041 27.2850
4.33509 26.5516
4.34978 25.8572
4.36447 25.1993
4.39384 23.9826
4.42321 22.8841
4.45259 21.8890
4.48196 20.9848
4.51133 20.1608
4.54071 19.4078
4.57008 18.7179
4.59945 18.0844
4.62883 17.5012
4.65820 16.9632
4.67956 16.5979
4.70093 16.2526
4.72229 15.9259
4.74365 15.6165
4.78638 15.0445
4.82910 14.5277
4.87183 14.0594
4.91455 13.6339
4.95728 13.2462
5.00000 12.8919
5.02686 12.6846
5.05371 12.4884
5.10742 12.1256
5.16113 11.7984
5.21484 11.5021
5.26856 11.2329
5.32227 10.9877
5.37598 10.7636
5.42969 10.5583
5.46631 10.4280
5.50293 10.3049
5.53955 10.1885
5.57617 10.0784
5.64942 9.87502
5.72266 9.69205
5.79590 9.52628
5.86914 9.37544
5.94238 9.23800
6.01563 9.11243
6.07422 9.01962
6.13281 8.93293
6.19141 8.85184
6.25000 8.77585
6.30371 8.71031
6.35742 8.64841
6.41113 8.58987
6.46484 8.53444
6.57227 8.43205
6.67969 8.33968
6.78711 8.25601
6.89453 8.17995
7.00195 8.11056
7.10938 8.04704
7.18750 8.00415
7.26563 7.96377
7.34375 7.92570
7.42188 7.88976
7.50000 7.85579
7.57813 7.82365
7.65625 7.79330
7.79297 7.74374
7.92969 7.69818
8.06641 7.65628
8.20313 7.61764
8.33984 7.58189
8.47656 7.54871
8.61328 7.51783
8.75000 7.48903
8.90625 7.45837
9.06250 7.42987
9.21875 7.40331
9.37500 7.37847
9.53125 7.35519
9.68750 7.33330
9.84375 7.31269
10.0000 7.29322
10.2344 7.26594
10.4688 7.24072
10.7031 7.21729
10.9375 7.19550
11.1328 7.17847
11.3281 7.16218
11.5234 7.14670
11.7188 7.13200
11.9141 7.11789
12.1094 7.10444
12.5000 7.07914
12.8125 7.06030
13.1250 7.04253
13.4375 7.02573
13.7500 7.00978
14.0625 6.99459
14.3750 6.98009
14.6875 6.96622
15.0000 6.95292
15.3125 6.94013
15.6250 6.92782
15.9375 6.91594
16.2500 6.90448
16.8750 6.88263
17.5000 6.86203
18.1250 6.84255
18.7500 6.82404
19.3750 6.80641
20.0000 6.78955
20.5349 6.77567
21.0698 6.76228
21.6047 6.74932
22.1396 6.73684
22.6745 6.72464
23.2093 6.71284
23.7442 6.70128
24.2791 6.69015
24.8140 6.67919
25.3489 6.66863
25.8838 6.65826
26.4187 6.64818
27.4885 6.62872
28.5582 6.61023
29.1525 6.60038
29.7469 6.59086
30.3412 6.58170
30.9355 6.57298
31.4110 6.56639
31.6487 6.56328
31.8864 6.56033
32.1241 6.55757
32.3619 6.55507
32.5996 6.55289
32.7185 6.55195
32.8373 6.55116
32.9562 6.55054
33.0751 6.55011
33.1939 6.54993
33.3128 6.55005
33.4019 6.55039
33.4911 6.55099
33.5802 6.55191
33.6694 6.55324
33.7140 6.55408
33.7585 6.55506
33.8031 6.55620
33.8477 6.55752
33.8923 6.55904
33.9368 6.56079
33.9814 6.56281
34.0260 6.56514
34.0706 6.56783
34.1151 6.57093
34.1597 6.57453
34.2043 6.57873
34.2489 6.58363
34.2711 6.58639
34.2934 6.58939
34.3157 6.59265
34.3380 6.59620
34.3603 6.60007
34.3826 6.60431
34.4141 6.61102
34.4457 6.61871
34.4615 6.62299
34.4773 6.62758
34.4931 6.63254
34.5089 6.63789
34.5247 6.64368
34.5404 6.64997
34.5562 6.65681
34.5720 6.66428
34.5878 6.67248
34.6036 6.68148
34.6194 6.69144
34.6352 6.70248
34.6454 6.71030
34.6556 6.71869
34.6658 6.72776
34.6760 6.73754
34.6862 6.74814
34.6964 6.75964
34.7067 6.77216
34.7169 6.78582
34.7271 6.80076
34.7373 6.81711
34.7475 6.83509
34.7577 6.85485
34.7680 6.87666
34.7782 6.90071
34.7884 6.92733
34.7986 6.95677
34.8065 6.98170
34.8144 7.00867
34.8223 7.03790
34.8302 7.06952
34.8381 7.10381
34.8460 7.14088
34.8539 7.18101
34.8617 7.22441
34.8696 7.27140
34.8775 7.32209
34.8854 7.37680
34.8933 7.43578
34.9012 7.49938
34.9091 7.56769
34.9170 7.64106
34.9249 7.71972
34.9351 7.82991
34.9453 7.94978
34.9555 8.08003
34.9657 8.22079
34.9760 8.37266
34.9862 8.53554
34.9964 8.70988
35.0066 8.89531
35.0168 9.09203
35.0270 9.29934
35.0373 9.51714
35.0475 9.74435
35.0577 9.98053
35.0679 10.2242
35.0883 10.7296
35.1292 11.7651
35.1496 12.2630
35.1700 12.7234
35.1803 12.9341
35.1905 13.1283
35.2007 13.3045
35.2109 13.4603
35.2222 13.6072
35.2335 13.7250
35.2448 13.8120
35.2562 13.8670
35.2700 13.8896
35.2813 13.8713
35.2925 13.8206
35.3038 13.7380
35.3150 13.6250
35.3248 13.5033
35.3346 13.3612
35.3443 13.2002
35.3541 13.0219
35.3639 12.8260
35.3738 12.6164
35.3935 12.1638
35.4132 11.6801
35.4329 11.1821
35.4508 10.7291
35.4687 10.2866
35.4866 9.86243
35.4956 9.65941
35.5046 9.46354
35.5144 9.25641
35.5243 9.05908
35.5341 8.87173
35.5440 8.69463
35.5538 8.52773
35.5637 8.37137
35.5735 8.22528
35.5834 8.08927
35.5896 8.00782
35.5959 7.93026
35.6022 7.85649
35.6085 7.78641
35.6147 7.71991
35.6210 7.65688
35.6273 7.59720
35.6335 7.54073
35.6398 7.48736
35.6461 7.43696
35.6523 7.38940
35.6586 7.34456
35.6649 7.30230
35.6712 7.26250
35.6774 7.22504
35.6837 7.18985
35.6935 7.13861
35.7034 7.09217
35.7132 7.05004
35.7231 7.01185
35.7330 6.97717
35.7428 6.94575
35.7527 6.91722
35.7625 6.89131
35.7724 6.86772
35.7822 6.84626
35.7921 6.82669
35.8019 6.80881
35.8118 6.79243
35.8216 6.77742
35.8315 6.76363
35.8413 6.75092
35.8539 6.73615
35.8664 6.72276
35.8789 6.71057
35.8915 6.69944
35.9040 6.68924
35.9166 6.67986
35.9291 6.67121
35.9416 6.66320
35.9542 6.65577
35.9667 6.64885
35.9793 6.64239
35.9918 6.63635
36.0043 6.63069
36.0169 6.62537
36.0420 6.61565
36.0617 6.60876
36.0814 6.60243
36.1011 6.59660
36.1208 6.59122
36.1405 6.58623
36.1602 6.58159
36.1799 6.57727
36.1996 6.57325
36.2193 6.56947
36.2390 6.56594
36.2784 6.55949
36.3178 6.55376
36.3572 6.54863
36.3895 6.54482
36.4217 6.54131
36.4540 6.53806
36.4862 6.53505
36.5185 6.53225
36.5507 6.52964
36.5829 6.52720
36.6152 6.52490
36.6797 6.52071
36.7442 6.51696
36.8086 6.51358
36.8731 6.51052
36.9340 6.50786
36.9949 6.50541
37.0558 6.50313
37.1167 6.50100
37.1777 6.49900
37.2386 6.49712
37.3604 6.49364
37.4822 6.49047
37.6040 6.48756
37.7258 6.48485
37.8476 6.48231
38.0339 6.47869
38.2202 6.47532
38.4065 6.47214
38.5928 6.46910
38.7791 6.46619
38.9654 6.46339
39.3380 6.45802
39.7106 6.45291
40.0832 6.44797
40.4558 6.44317
40.8284 6.43850
41.2870 6.43289
41.7455 6.42741
42.7774 6.41547
43.8092 6.40396
44.8410 6.39282
45.8728 6.38201
47.9364 6.36129
50.0000 6.34157
51.5625 6.32728
53.1250 6.31350
54.6875 6.30018
56.2500 6.28730
57.8125 6.27484
59.3750 6.26277
60.9375 6.25106
62.5000 6.23971
64.0625 6.22869
65.6250 6.21799
67.1875 6.20759
68.7500 6.19748
70.3125 6.18764
71.8750 6.17807
75.0000 6.15965
78.1250 6.14215
81.2500 6.12549
84.3750 6.10959
87.5000 6.09441
90.6250 6.07989
93.7500 6.06598
96.8750 6.05264
100.000 6.03982
103.125 6.02749
106.250 6.01562
109.375 6.00417
112.500 5.99313
115.625 5.98246
118.750 5.97214
121.875 5.96215
125.000 5.95247
128.125 5.94308
131.250 5.93397
134.375 5.92511
137.500 5.91650
140.625 5.90811
143.750 5.89995
146.875 5.89199
150.000 5.88423
156.250 5.86925
162.500 5.85492
168.750 5.84118
175.000 5.82798
181.250 5.81526
187.500 5.80296
193.750 5.79105
200.000 5.77949
207.578 5.76588
215.155 5.75266
222.733 5.73977
230.311 5.72715
237.888 5.71476
245.466 5.70253
253.043 5.69039
260.621 5.67826
265.357 5.67065
270.093 5.66298
274.829 5.65520
279.565 5.64726
283.828 5.63991
288.090 5.63228
290.221 5.62831
292.352 5.62422
294.484 5.61998
296.615 5.61554
299.101 5.61004
300.344 5.60712
301.588 5.60407
302.831 5.60085
304.074 5.59744
305.317 5.59380
306.560 5.58988
307.863 5.58538
308.514 5.58295
309.165 5.58037
309.816 5.57763
310.468 5.57470
311.119 5.57155
311.770 5.56815
312.244 5.56548
312.717 5.56264
313.191 5.55959
313.664 5.55632
314.138 5.55278
314.612 5.54895
315.085 5.54477
315.322 5.54254
315.559 5.54020
315.855 5.53712
316.151 5.53387
316.447 5.53043
316.743 5.52681
316.980 5.52378
317.216 5.52066
317.453 5.51747
317.572 5.51586
317.690 5.51426
317.868 5.51190
318.045 5.50964
318.193 5.50790
318.341 5.50638
318.489 5.50519
318.563 5.50476
318.637 5.50449
318.711 5.50440
318.785 5.50454
318.859 5.50496
318.933 5.50574
319.007 5.50696
319.081 5.50876
319.155 5.51131
319.229 5.51488
319.311 5.52043
319.351 5.52407
319.392 5.52847
319.433 5.53381
319.473 5.54031
319.514 5.54828
319.555 5.55808
319.596 5.57018
319.636 5.58519
319.677 5.60386
319.718 5.62713
319.738 5.64089
319.758 5.65617
319.779 5.67334
319.799 5.69241
319.819 5.71382
319.840 5.73759
319.860 5.76425
319.880 5.79383
319.905 5.83334
319.929 5.87800
319.953 5.92882
319.977 5.98610
320.001 6.05109
320.025 6.12408
320.049 6.20659
320.073 6.29890
320.085 6.34960
320.097 6.40282
320.109 6.45910
320.121 6.51858
320.133 6.58195
320.145 6.64831
320.157 6.71831
320.169 6.79213
320.181 6.87057
320.193 6.95250
320.205 7.03873
320.217 7.12940
320.229 7.22551
320.241 7.32563
320.253 7.43071
320.265 7.54092
320.284 7.72124
320.302 7.91477
320.321 8.12209
320.339 8.34382
320.358 8.58051
320.376 8.83273
320.395 9.10100
320.413 9.38580
320.432 9.68758
320.450 10.0067
320.469 10.3436
320.487 10.6984
320.506 11.0715
320.524 11.4628
320.543 11.8726
320.561 12.3006
320.582 12.7937
320.602 13.3059
320.622 13.8419
320.643 14.3957
320.683 15.5640
320.724 16.8019
320.765 18.0977
320.805 19.4367
320.887 22.1720
320.931 23.6479
320.976 25.0739
321.016 26.3102
321.057 27.4537
321.092 28.3497
321.127 29.1421
321.164 29.8543
321.205 30.4766
321.246 30.9167
321.286 31.1615
321.300 31.2040
321.325 31.2178
321.366 31.0784
321.396 30.8516
321.418 30.6224
321.440 30.3411
321.470 29.8722
321.500 29.3164
321.530 28.6748
321.560 27.9613
321.606 26.7356
321.653 25.3886
321.713 23.5202
321.773 21.5830
321.838 19.4750
321.871 18.4464
321.903 17.4463
321.933 16.5597
321.963 15.7075
321.993 14.8935
322.023 14.1206
322.053 13.3910
322.083 12.7059
322.113 12.0662
322.128 11.7634
322.143 11.4738
322.162 11.1188
322.181 10.7818
322.201 10.4624
322.220 10.1604
322.239 9.87526
322.258 9.60653
322.277 9.35370
322.296 9.11744
322.315 8.89468
322.334 8.68609
322.353 8.49108
322.372 8.30994
322.391 8.14013
322.410 7.98201
322.430 7.83496
322.449 7.69905
322.464 7.59867
322.479 7.50407
322.494 7.41497
322.509 7.33110
322.524 7.25219
322.539 7.17799
322.554 7.10823
322.569 7.04267
322.584 6.98109
322.599 6.92325
322.614 6.86894
322.629 6.81795
322.644 6.77008
322.659 6.72514
322.674 6.68295
322.688 6.64359
322.718 6.57144
322.748 6.50775
322.778 6.45145
322.808 6.40175
322.838 6.35747
322.868 6.31804
322.898 6.28283
322.928 6.25135
322.956 6.22537
322.983 6.20168
323.010 6.18000
323.037 6.16017
323.092 6.12490
323.146 6.09451
323.201 6.06797
323.255 6.04451
323.310 6.02354
323.364 6.00463
323.419 5.98741
323.473 5.97168
323.528 5.95722
323.582 5.94385
323.691 5.91988
323.800 5.89899
323.931 5.87714
324.062 5.85816
324.149 5.84683
324.302 5.82910
324.455 5.81361
324.607 5.79995
324.760 5.78783
324.913 5.77698
325.065 5.76721
325.218 5.75837
325.371 5.75034
325.523 5.74300
325.676 5.73627
325.981 5.72436
326.287 5.71412
326.592 5.70524
326.941 5.69640
327.181 5.69098
327.420 5.68602
