Cd-106(n,g) ENDFB-8.0
Energy(eV) XS(b)
1.00000E-05 49.6054
1.03125E-05 48.8480
1.06250E-05 48.1243
1.09375E-05 47.4318
1.12500E-05 46.7684
1.15625E-05 46.1320
1.18750E-05 45.5210
1.21875E-05 44.9336
1.25000E-05 44.3684
1.28125E-05 43.8240
1.31250E-05 43.2991
1.34375E-05 42.7927
1.37500E-05 42.3036
1.43750E-05 41.3737
1.50000E-05 40.5026
1.56250E-05 39.6843
1.62500E-05 38.9136
1.68750E-05 38.1862
1.75000E-05 37.4981
1.81250E-05 36.8459
1.87500E-05 36.2266
1.93750E-05 35.6375
2.00000E-05 35.0763
2.09375E-05 34.2820
2.18750E-05 33.5393
2.28125E-05 32.8429
2.37500E-05 32.1882
2.46875E-05 31.5711
2.56250E-05 30.9882
2.65625E-05 30.4364
2.75000E-05 29.9131
2.84375E-05 29.4159
2.93750E-05 28.9427
3.03125E-05 28.4916
3.12500E-05 28.0610
3.21875E-05 27.6493
3.31250E-05 27.2553
3.40625E-05 26.8776
3.50000E-05 26.5152
3.59375E-05 26.1670
3.68750E-05 25.8323
3.78125E-05 25.5100
3.87500E-05 25.1995
3.96875E-05 24.9001
4.06250E-05 24.6111
4.25000E-05 24.0621
4.43750E-05 23.5483
4.62500E-05 23.0660
4.81250E-05 22.6122
5.00000E-05 22.1842
5.15625E-05 21.8455
5.31250E-05 21.5218
5.46875E-05 21.2121
5.62500E-05 20.9154
5.78125E-05 20.6309
5.93750E-05 20.3576
6.09375E-05 20.0949
6.25000E-05 19.8421
6.40625E-05 19.5986
6.56250E-05 19.3639
6.71875E-05 19.1374
6.87500E-05 18.9187
7.18750E-05 18.5029
7.50000E-05 18.1133
7.81250E-05 17.7473
8.12500E-05 17.4027
8.43750E-05 17.0774
8.75000E-05 16.7696
9.06250E-05 16.4780
9.37500E-05 16.2010
9.68750E-05 15.9376
0.000100000 15.6866
0.000103125 15.4471
0.000106250 15.2182
0.000109375 14.9992
0.000112500 14.7894
0.000115625 14.5882
0.000118750 14.3950
0.000121875 14.2092
0.000125000 14.0305
0.000128125 13.8583
0.000131250 13.6923
0.000134375 13.5322
0.000137500 13.3775
0.000143750 13.0835
0.000150000 12.8080
0.000156250 12.5492
0.000162500 12.3055
0.000168750 12.0755
0.000175000 11.8579
0.000181250 11.6517
0.000187500 11.4558
0.000193750 11.2695
0.000200000 11.0921
0.000209375 10.8409
0.000218750 10.6060
0.000228125 10.3858
0.000237500 10.1788
0.000246875 9.98361
0.000256250 9.79928
0.000265625 9.62480
0.000275000 9.45932
0.000284375 9.30208
0.000293750 9.15244
0.000303125 9.00980
0.000312500 8.87362
0.000321875 8.74343
0.000331250 8.61882
0.000340625 8.49938
0.000350000 8.38478
0.000359375 8.27469
0.000368750 8.16882
0.000378125 8.06692
0.000387500 7.96873
0.000396875 7.87405
0.000406250 7.78267
0.000425000 7.60905
0.000443750 7.44656
0.000462500 7.29405
0.000481250 7.15055
0.000500000 7.01519
0.000515625 6.90808
0.000531250 6.80573
0.000546875 6.70780
0.000562500 6.61398
0.000578125 6.52399
0.000593750 6.43757
0.000609375 6.35450
0.000625000 6.27456
0.000640625 6.19757
0.000656250 6.12335
0.000671875 6.05172
0.000687500 5.98256
0.000718750 5.85105
0.000750000 5.72786
0.000781250 5.61213
0.000812500 5.50314
0.000843750 5.40027
0.000875000 5.30296
0.000906250 5.21072
0.000937500 5.12314
0.000968750 5.03983
0.00100000 4.96045
0.00103125 4.88472
0.00106250 4.81234
0.00109375 4.74310
0.00112500 4.67675
0.00115625 4.61312
0.00118750 4.55201
0.00121875 4.49327
0.00125000 4.43675
0.00128125 4.38231
0.00131250 4.32982
0.00134375 4.27918
0.00137500 4.23027
0.00143750 4.13728
0.00150000 4.05016
0.00156250 3.96833
0.00162500 3.89126
0.00168750 3.81852
0.00175000 3.74971
0.00181250 3.68448
0.00187500 3.62255
0.00193750 3.56364
0.00200000 3.50751
0.00209375 3.42808
0.00218750 3.35381
0.00228125 3.28416
0.00237500 3.21869
0.00246875 3.15697
0.00256250 3.09868
0.00265625 3.04350
0.00275000 2.99116
0.00284375 2.94144
0.00293750 2.89411
0.00303125 2.84900
0.00312500 2.80594
0.00321875 2.76476
0.00331250 2.72535
0.00340625 2.68758
0.00350000 2.65134
0.00359375 2.61652
0.00368750 2.58304
0.00378125 2.55081
0.00387500 2.51976
0.00396875 2.48982
0.00406250 2.46092
0.00425000 2.40601
0.00443750 2.35462
0.00462500 2.30639
0.00481250 2.26101
0.00500000 2.21820
0.00515625 2.18433
0.00531250 2.15196
0.00546875 2.12099
0.00562500 2.09132
0.00578125 2.06286
0.00593750 2.03553
0.00609375 2.00926
0.00625000 1.98398
0.00640625 1.95963
0.00656250 1.93615
0.00671875 1.91350
0.00687500 1.89163
0.00718750 1.85004
0.00750000 1.81107
0.00781250 1.77447
0.00812500 1.74000
0.00843750 1.70746
0.00875000 1.67668
0.00906250 1.64751
0.00937500 1.61981
0.00968750 1.59346
0.0100000 1.56835
0.0103125 1.54439
0.0106250 1.52150
0.0109375 1.49960
0.0112500 1.47862
0.0115625 1.45849
0.0118750 1.43916
0.0121875 1.42059
0.0125000 1.40271
0.0128125 1.38549
0.0131250 1.36889
0.0134375 1.35288
0.0137500 1.33741
0.0143750 1.30800
0.0150000 1.28045
0.0156250 1.25456
0.0162500 1.23018
0.0168750 1.20717
0.0175000 1.18540
0.0181250 1.16477
0.0187500 1.14518
0.0193750 1.12654
0.0200000 1.10878
0.0206625 1.09084
0.0213250 1.07375
0.0219875 1.05743
0.0226500 1.04184
0.0233125 1.02691
0.0239750 1.01261
0.0246375 0.998890
0.0253000 0.985712
0.0264578 0.963881
0.0276156 0.943440
0.0287734 0.924246
0.0299313 0.906178
0.0310891 0.889130
0.0322469 0.873009
0.0334047 0.857733
0.0345625 0.843230
0.0355274 0.831689
0.0364922 0.820607
0.0374570 0.809955
0.0384219 0.799705
0.0393867 0.789834
0.0403516 0.780318
0.0413164 0.771137
0.0422813 0.762271
0.0442109 0.745418
0.0461406 0.729633
0.0480703 0.714808
0.0500000 0.700850
0.0515625 0.690126
0.0531250 0.679879
0.0546875 0.670074
0.0562500 0.660681
0.0578125 0.651672
0.0593750 0.643021
0.0609375 0.634705
0.0625000 0.626704
0.0640625 0.618999
0.0656250 0.611571
0.0671875 0.604404
0.0687500 0.597482
0.0718750 0.584322
0.0750000 0.571989
0.0781250 0.560399
0.0812500 0.549481
0.0843750 0.539175
0.0875000 0.529425
0.0906250 0.520183
0.0937500 0.511407
0.0968750 0.503058
0.100000 0.495104
0.103125 0.487514
0.106250 0.480261
0.109375 0.473321
0.112500 0.466672
0.115625 0.460294
0.118750 0.454169
0.121875 0.448282
0.125000 0.442617
0.128125 0.437162
0.131250 0.431903
0.134375 0.426831
0.137500 0.421932
0.143750 0.412617
0.150000 0.403883
0.156250 0.395675
0.162500 0.387943
0.168750 0.380643
0.175000 0.373737
0.181250 0.367192
0.187500 0.360978
0.193750 0.355068
0.200000 0.349439
0.209375 0.341471
0.218750 0.334014
0.228125 0.327018
0.237500 0.320439
0.246875 0.314238
0.256250 0.308379
0.265625 0.302833
0.275000 0.297571
0.284375 0.292572
0.293750 0.287813
0.303125 0.283276
0.312500 0.278943
0.321875 0.274801
0.331250 0.270836
0.340625 0.267035
0.350000 0.263386
0.359375 0.259881
0.368750 0.256510
0.378125 0.253265
0.387500 0.250140
0.396875 0.247127
0.406250 0.244221
0.425000 0.238696
0.443750 0.233515
0.462500 0.228650
0.500000 0.219765
0.531250 0.213089
0.562500 0.206958
0.593750 0.201316
0.625000 0.196099
0.687500 0.186747
0.750000 0.178582
0.812500 0.171371
0.875000 0.164958
0.937500 0.159190
1.00000 0.153949
1.06250 0.149174
1.12500 0.144797
1.18750 0.140767
1.25000 0.137040
1.37500 0.130353
1.50000 0.124510
1.62500 0.119344
1.75000 0.114743
1.87500 0.110602
2.00000 0.106835
2.18750 0.101792
2.37500 0.0973510
2.56250 0.0933961
2.75000 0.0898498
2.93750 0.0866402
3.12500 0.0837105
3.31250 0.0810266
3.50000 0.0785555
3.68750 0.0762700
3.87500 0.0741475
4.25000 0.0703194
4.62500 0.0669524
5.00000 0.0639617
5.31250 0.0617075
5.62500 0.0596346
5.93750 0.0577218
6.25000 0.0559491
6.56250 0.0542999
6.87500 0.0527603
7.50000 0.0499642
8.12500 0.0474854
8.75000 0.0452694
9.37500 0.0432706
10.0000 0.0414534
10.6250 0.0397934
11.2500 0.0382690
11.8750 0.0368627
12.5000 0.0355601
13.1250 0.0343490
13.7500 0.0332192
14.3750 0.0321621
15.0000 0.0311704
16.2500 0.0293583
17.5000 0.0277426
18.7500 0.0262900
20.0000 0.0249741
20.9375 0.0240657
21.8750 0.0232176
22.8125 0.0224231
23.7500 0.0216772
25.6250 0.0203137
27.5000 0.0190982
29.3750 0.0180068
31.2500 0.0170206
33.1250 0.0161256
35.0000 0.0153097
36.8750 0.0145630
38.7500 0.0138773
40.6250 0.0132454
42.5000 0.0126615
44.3750 0.0121205
46.2500 0.0116180
48.1250 0.0111503
50.0000 0.0107143
53.1250 0.0100494
56.2500 0.00945233
59.3750 0.00891397
62.5000 0.00842668
65.6250 0.00798407
68.7500 0.00758074
71.8750 0.00721213
75.0000 0.00687436
78.1250 0.00656408
81.2500 0.00627842
84.3750 0.00601487
87.5000 0.00577125
90.6250 0.00554566
93.7500 0.00533641
96.8750 0.00514203
100.000 0.00496121
103.125 0.00479279
106.250 0.00463572
109.375 0.00448908
112.500 0.00435216
118.750 0.00410409
125.000 0.00388625
131.250 0.00369461
137.500 0.00352572
143.750 0.00337673
150.000 0.00324526
156.250 0.00312934
162.500 0.00302728
168.750 0.00293769
175.000 0.00285938
181.250 0.00279135
187.500 0.00273277
193.750 0.00268294
200.000 0.00264129
208.017 0.00259905
216.033 0.00256867
224.050 0.00254961
232.066 0.00254154
242.588 0.00254840
247.849 0.00255744
253.110 0.00257333
263.632 0.00261691
274.154 0.00268373
279.415 0.00272471
284.675 0.00277406
289.936 0.00282848
295.197 0.00289023
300.458 0.00296217
305.719 0.00304070
310.980 0.00312972
316.241 0.00322865
321.752 0.00334783
327.264 0.00348189
332.775 0.00363394
338.286 0.00380819
343.798 0.00400552
349.309 0.00423388
354.821 0.00449750
360.332 0.00480180
363.839 0.00502388
367.347 0.00527132
370.854 0.00554727
374.361 0.00585084
377.868 0.00619766
381.376 0.00659060
384.883 0.00703772
388.390 0.00755061
391.021 0.00798824
393.651 0.00847777
396.281 0.00902755
398.912 0.00965232
401.542 0.0103640
404.173 0.0111770
406.803 0.0121193
408.118 0.0126447
409.434 0.0132098
410.812 0.0138575
412.189 0.0145642
413.567 0.0153376
414.945 0.0161864
416.323 0.0171210
417.701 0.0181538
419.079 0.0192993
420.456 0.0205746
421.772 0.0219326
423.087 0.0234497
424.402 0.0251524
425.717 0.0270731
426.375 0.0281269
427.033 0.0292509
427.690 0.0304508
428.348 0.0317341
429.006 0.0331093
429.663 0.0345839
430.321 0.0361635
430.978 0.0378606
431.667 0.0397911
432.356 0.0418881
433.045 0.0441694
433.734 0.0466577
434.423 0.0493788
435.112 0.0523631
435.801 0.0556459
436.490 0.0592686
437.179 0.0632809
437.868 0.0677397
438.557 0.0727158
438.901 0.0754230
439.245 0.0782912
439.590 0.0813352
439.934 0.0845688
440.279 0.0880081
440.623 0.0916701
440.968 0.0955767
441.312 0.0997479
441.657 0.104211
442.001 0.108990
442.408 0.115088
442.815 0.121721
443.222 0.128961
443.630 0.136897
444.037 0.145625
444.444 0.155246
444.851 0.165883
445.258 0.177681
445.602 0.188707
445.947 0.200819
446.291 0.214166
446.636 0.228917
446.980 0.245287
447.325 0.263513
447.497 0.273419
447.669 0.283899
447.841 0.295006
448.014 0.306789
448.295 0.327692
448.577 0.350838
448.859 0.376578
449.000 0.390533
449.141 0.405289
449.282 0.420918
449.423 0.437467
449.564 0.455024
449.705 0.473673
449.846 0.493512
449.986 0.514647
450.127 0.537196
450.268 0.561290
450.441 0.593066
450.613 0.627649
450.785 0.665425
450.957 0.706752
451.130 0.752145
451.302 0.802099
451.474 0.857286
451.646 0.918472
451.818 0.986610
451.905 1.02359
451.991 1.06272
452.077 1.10417
452.163 1.14815
452.249 1.19485
452.335 1.24452
452.421 1.29747
452.507 1.35387
452.593 1.41411
452.680 1.47853
452.766 1.54756
452.852 1.62164
452.938 1.70130
453.024 1.78712
453.126 1.89747
453.228 2.01866
453.329 2.15221
453.431 2.29977
453.533 2.46377
453.635 2.64669
453.686 2.74620
453.736 2.85167
453.787 2.96362
453.838 3.08238
453.897 3.22944
453.956 3.38760
454.014 3.55839
454.073 3.74330
454.132 3.94409
454.190 4.16280
454.249 4.40193
454.279 4.53027
454.308 4.66442
454.343 4.83500
454.378 5.01573
454.414 5.20810
454.449 5.41332
454.484 5.63340
454.519 5.86865
454.554 6.12150
454.590 6.39405
454.621 6.65489
454.652 6.93519
454.670 7.10314
454.688 7.27747
454.705 7.45957
454.723 7.64997
454.740 7.85037
454.758 8.05912
454.776 8.27797
454.793 8.50762
454.817 8.83239
454.840 9.17971
454.864 9.55172
454.887 9.95080
454.899 10.1622
454.911 10.3796
454.923 10.6069
454.934 10.8408
454.946 11.0857
454.958 11.3378
454.969 11.5996
454.981 11.8716
454.992 12.1321
455.003 12.4020
455.014 12.6817
455.024 12.9690
455.035 13.2696
455.046 13.5785
455.057 13.9018
455.067 14.2341
455.078 14.5821
455.089 14.9432
455.100 15.3180
455.110 15.7034
455.121 16.1072
455.132 16.5226
455.143 16.9578
455.153 17.4055
455.164 17.8746
455.175 18.3619
455.186 18.8680
455.196 19.3886
455.207 19.9343
455.218 20.5011
455.229 21.0897
455.240 21.6952
455.250 22.3298
455.261 22.9888
455.272 23.6731
455.283 24.3768
455.293 25.1141
455.304 25.8722
455.315 26.6663
455.326 27.4826
455.336 28.3374
455.347 29.2243
455.369 31.0892
455.390 33.0937
455.412 35.2463
455.433 37.5560
455.455 40.0317
455.476 42.6826
455.498 45.5179
455.519 48.5611
455.541 51.7933
455.562 55.2534
455.584 58.9181
455.606 62.8299
455.627 66.9605
455.649 71.3346
455.670 75.9591
455.692 80.8632
455.713 86.0065
455.735 91.4152
455.756 97.0922
455.778 103.068
455.799 109.287
455.821 115.775
455.842 122.530
455.864 129.582
455.885 136.858
455.907 144.382
455.928 152.146
455.971 168.381
456.014 185.368
456.056 202.203
456.097 219.462
456.179 254.488
456.265 290.282
456.308 307.165
456.351 322.966
456.394 337.363
456.437 350.121
456.480 361.012
456.523 369.767
456.571 376.746
456.618 380.772
456.657 381.809
456.665 381.761
456.691 381.016
456.716 379.373
456.742 376.847
456.767 373.456
456.793 369.153
456.819 364.017
456.845 358.087
456.871 351.435
456.898 343.761
456.925 335.425
456.979 316.904
457.033 296.419
457.087 274.542
457.160 243.492
457.234 212.270
457.288 189.955
457.342 168.569
457.369 158.304
457.396 148.416
457.422 138.893
457.449 129.754
457.476 120.984
457.503 112.659
457.530 104.725
457.557 97.2429
457.584 90.1570
457.611 83.5162
457.638 77.2644
457.665 71.4387
457.688 66.7091
457.712 62.2643
457.735 58.0949
457.758 54.2071
457.781 50.5568
457.805 47.1643
457.828 43.9891
457.851 41.0470
457.874 38.3011
457.898 35.7529
457.921 33.3910
457.944 31.2132
457.967 29.1897
457.991 27.3273
458.014 25.5996
458.037 24.0117
458.064 22.3175
458.091 20.7809
458.118 19.3771
458.145 18.1045
458.172 16.9420
458.199 15.8877
458.226 14.9240
458.253 14.0489
458.280 13.2476
458.307 12.5187
458.334 11.8498
458.361 11.2396
458.388 10.6780
458.414 10.1641
458.441 9.68941
458.468 9.25338
458.500 8.77901
458.532 8.34718
458.564 7.95043
458.596 7.58711
458.628 7.25134
458.659 6.94208
458.691 6.65548
458.723 6.38916
458.755 6.14030
458.787 5.90861
458.819 5.69104
458.850 5.48755
458.882 5.29563
458.914 5.11540
458.978 4.78444
459.032 4.53093
459.086 4.29880
459.139 4.08547
459.193 3.88875
459.247 3.70682
459.301 3.53810
459.355 3.38126
459.409 3.23513
459.463 3.09871
459.517 2.97110
459.571 2.85152
459.625 2.73929
459.678 2.63379
459.732 2.53447
459.786 2.44084
459.840 2.35262
459.948 2.19004
460.056 2.04416
460.163 1.91273
460.271 1.79395
460.379 1.68604
460.487 1.58785
460.594 1.49808
460.702 1.41592
460.790 1.35366
460.879 1.29548
460.967 1.24104
461.055 1.19007
461.143 1.14217
461.231 1.09714
461.319 1.05476
461.408 1.01486
461.496 0.977171
461.584 0.941564
461.760 0.876042
461.937 0.817163
462.113 0.764113
462.221 0.734207
462.329 0.706043
462.436 0.679486
462.544 0.654438
462.652 0.630745
462.760 0.608330
462.975 0.566996
463.191 0.529765
463.406 0.496139
463.622 0.465637
463.837 0.437909
464.092 0.408242
464.347 0.381539
464.602 0.357411
464.856 0.335541
465.111 0.315649
465.366 0.297513
465.620 0.280919
465.875 0.265691
466.091 0.253759
466.306 0.242629
466.522 0.232223
466.737 0.222489
466.953 0.213364
467.168 0.204805
467.384 0.196760
467.600 0.189194
467.815 0.182065
468.031 0.175346
468.246 0.169000
468.462 0.163005
468.893 0.151960
469.324 0.142040
469.755 0.133093
470.186 0.124999
470.617 0.117653
471.048 0.110966
471.479 0.104863
471.910 0.0992789
472.342 0.0941567
472.773 0.0894494
473.145 0.0856845
473.517 0.0821778
473.890 0.0789046
474.262 0.0758393
474.634 0.0729627
475.006 0.0702622
475.379 0.0677262
475.751 0.0653427
476.123 0.0631005
476.496 0.0609893
477.240 0.0571237
477.985 0.0536812
478.729 0.0506086
479.592 0.0474553
480.454 0.0446834
481.316 0.0422488
482.178 0.0401170
483.040 0.0382619
483.903 0.0366666
484.765 0.0353225
485.627 0.0342313
486.254 0.0336041
486.881 0.0331292
487.508 0.0328243
488.135 0.0327165
488.723 0.0328302
489.311 0.0332017
489.899 0.0339015
490.486 0.0350278
490.780 0.0358002
491.074 0.0367529
491.368 0.0379263
491.662 0.0393693
491.956 0.0411462
492.250 0.0433410
492.544 0.0460708
492.838 0.0494987
493.151 0.0541958
493.357 0.0580640
493.563 0.0627560
493.769 0.0685245
493.974 0.0757159
494.077 0.0800019
494.180 0.0848593
494.283 0.0904007
494.386 0.0967651
494.489 0.104160
494.592 0.112850
494.694 0.123223
494.797 0.135849
494.851 0.143658
494.905 0.152510
494.959 0.162637
495.013 0.174337
495.067 0.187992
495.121 0.204093
495.175 0.223262
495.228 0.246244
495.282 0.274115
495.336 0.308071
495.363 0.327833
495.390 0.349632
495.417 0.373780
495.444 0.400539
495.471 0.430311
495.498 0.463188
495.525 0.499754
495.552 0.540100
495.579 0.584919
495.606 0.634294
495.632 0.688821
495.659 0.748965
495.686 0.815468
495.713 0.888345
495.740 0.968667
495.767 1.05638
495.794 1.15268
495.821 1.25741
495.848 1.37191
495.875 1.49587
495.902 1.63076
495.929 1.77607
495.956 1.93337
495.983 2.10194
496.010 2.28341
496.037 2.47678
496.064 2.68294
496.090 2.90209
496.125 3.20046
496.159 3.52001
496.193 3.86037
496.228 4.22086
496.262 4.60044
496.296 4.99769
496.331 5.41082
496.365 5.83636
496.414 6.46459
496.463 7.10657
496.561 8.38956
496.615 9.06686
496.668 9.70133
496.720 10.2540
496.771 10.7378
496.798 10.9603
496.825 11.1581
496.852 11.3311
496.879 11.4768
496.907 11.5988
496.935 11.6892
496.968 11.7545
497.000 11.7759
497.011 11.7732
497.046 11.7304
497.081 11.6365
497.113 11.5116
497.144 11.3488
497.167 11.2070
497.198 10.9823
497.229 10.7260
497.266 10.3839
497.303 10.0050
497.334 9.65940
497.366 9.29444
497.428 8.51974
497.588 6.43884
497.650 5.64181
497.682 5.25764
497.713 4.88556
497.744 4.52713
497.775 4.18364
497.807 3.85613
497.838 3.54632
497.865 3.29112
497.892 3.04994
497.919 2.82107
497.946 2.60617
497.973 2.40353
498.000 2.21443
498.027 2.03781
498.054 1.87332
498.081 1.72000
498.108 1.57852
498.135 1.44781
498.162 1.32734
498.189 1.21618
498.216 1.11460
498.243 1.02161
498.270 0.936668
498.293 0.870795
498.316 0.809941
498.339 0.753792
498.362 0.702259
498.384 0.654592
498.407 0.610928
498.430 0.570609
498.453 0.533732
498.475 0.499725
498.498 0.468523
498.521 0.439905
498.544 0.413774
498.589 0.367731
498.635 0.328996
498.680 0.296298
498.726 0.268749
498.771 0.245398
498.817 0.225516
498.862 0.208495
498.908 0.193833
498.953 0.181116
498.999 0.170008
499.061 0.156859
499.124 0.145683
499.187 0.136059
499.249 0.127674
499.312 0.120289
499.374 0.113727
499.499 0.102554
499.625 0.0933596
499.750 0.0856646
499.875 0.0791221
500.000 0.0735061
500.164 0.0672379
500.329 0.0619704
500.493 0.0574927
500.658 0.0536505
500.822 0.0503204
500.986 0.0474155
501.315 0.0426034
501.644 0.0388021
501.972 0.0357417
502.301 0.0332383
502.630 0.0311607
503.123 0.0286351
503.616 0.0266263
504.109 0.0249971
504.602 0.0236559
505.095 0.0225348
505.588 0.0215865
506.081 0.0207779
506.574 0.0200823
507.560 0.0189249
508.546 0.0180084
509.532 0.0172703
510.518 0.0166644
511.570 0.0161287
512.622 0.0156818
513.674 0.0153053
514.726 0.0149862
516.830 0.0144856
518.933 0.0141235
521.037 0.0138650
523.141 0.0136929
525.244 0.0135933
527.348 0.0135568
530.240 0.0135991
533.133 0.0137353
536.026 0.0139609
538.918 0.0142749
541.811 0.0146729
544.703 0.0151614
547.596 0.0157429
550.488 0.0164221
553.381 0.0172129
556.273 0.0181213
559.166 0.0191643
560.612 0.0197423
562.058 0.0203626
563.505 0.0210229
564.951 0.0217312
566.397 0.0224934
567.844 0.0233061
569.290 0.0241774
570.736 0.0251181
572.182 0.0261252
573.629 0.0272051
575.469 0.0287063
577.310 0.0303611
579.151 0.0321880
580.992 0.0341885
582.832 0.0364287
584.673 0.0389239
586.514 0.0417127
587.434 0.0432316
588.354 0.0448420
589.801 0.0475760
591.247 0.0505874
592.693 0.0539143
594.139 0.0576018
595.586 0.0617035
596.309 0.0639296
597.032 0.0662837
597.755 0.0687765
598.478 0.0714187
599.201 0.0742224
599.925 0.0772010
601.042 0.0821842
602.160 0.0876839
603.277 0.0937739
604.395 0.100541
605.512 0.108086
606.071 0.112175
606.630 0.116500
607.189 0.121101
607.748 0.125995
608.306 0.131200
608.865 0.136740
609.588 0.144459
610.311 0.152863
