Sn-117(n,tot) ENDFB-8.0
Energy(eV) XS(b)
1.00000E-05 82.5268
1.03125E-05 81.2796
1.06250E-05 80.0881
1.09375E-05 78.9482
1.12500E-05 77.8563
1.15625E-05 76.8091
1.18750E-05 75.8037
1.21875E-05 74.8374
1.25000E-05 73.9076
1.28125E-05 73.0123
1.31250E-05 72.1492
1.34375E-05 71.3166
1.37500E-05 70.5126
1.43750E-05 68.9845
1.50000E-05 67.5533
1.56250E-05 66.2092
1.62500E-05 64.9439
1.68750E-05 63.7499
1.75000E-05 62.6208
1.81250E-05 61.5510
1.87500E-05 60.5354
1.93750E-05 59.5696
2.00000E-05 58.6498
2.09375E-05 57.3486
2.18750E-05 56.1325
2.28125E-05 54.9927
2.37500E-05 53.9215
2.46875E-05 52.9124
2.56250E-05 51.9597
2.65625E-05 51.0582
2.75000E-05 50.2037
2.84375E-05 49.3921
2.93750E-05 48.6201
3.03125E-05 47.8844
3.12500E-05 47.1825
3.21875E-05 46.5117
3.31250E-05 45.8700
3.40625E-05 45.2551
3.50000E-05 44.6655
3.59375E-05 44.0992
3.68750E-05 43.5550
3.78125E-05 43.0314
3.87500E-05 42.5271
3.96875E-05 42.0410
4.06250E-05 41.5720
4.25000E-05 40.6817
4.43750E-05 39.8491
4.62500E-05 39.0684
4.81250E-05 38.3344
5.00000E-05 37.6427
5.15625E-05 37.0957
5.31250E-05 36.5735
5.46875E-05 36.0741
5.62500E-05 35.5961
5.78125E-05 35.1378
5.93750E-05 34.6981
6.09375E-05 34.2758
6.25000E-05 33.8696
6.40625E-05 33.4787
6.56250E-05 33.1021
6.71875E-05 32.7389
6.87500E-05 32.3885
7.18750E-05 31.7229
7.50000E-05 31.1002
7.81250E-05 30.5160
8.12500E-05 29.9666
8.43750E-05 29.4488
8.75000E-05 28.9596
9.06250E-05 28.4965
9.37500E-05 28.0573
9.68750E-05 27.6402
0.000100000 27.2432
0.000103125 26.8650
0.000106250 26.5040
0.000109375 26.1590
0.000112500 25.8290
0.000115625 25.5128
0.000118750 25.2095
0.000121875 24.9184
0.000125000 24.6386
0.000128125 24.3694
0.000131250 24.1102
0.000134375 23.8604
0.000137500 23.6195
0.000143750 23.1622
0.000150000 22.7348
0.000156250 22.3343
0.000162500 21.9579
0.000168750 21.6035
0.000175000 21.2690
0.000181250 20.9527
0.000187500 20.6529
0.000193750 20.3684
0.000200000 20.0979
0.000209375 19.7161
0.000218750 19.3602
0.000228125 19.0276
0.000237500 18.7157
0.000246875 18.4226
0.000256250 18.1466
0.000265625 17.8860
0.000275000 17.6396
0.000284375 17.4060
0.000293750 17.1844
0.000303125 16.9736
0.000312500 16.7730
0.000321875 16.5816
0.000331250 16.3989
0.000340625 16.2242
0.000350000 16.0569
0.000359375 15.8966
0.000368750 15.7429
0.000378125 15.5952
0.000387500 15.4532
0.000396875 15.3166
0.000406250 15.1850
0.000425000 14.9358
0.000443750 14.7035
0.000462500 14.4863
0.000481250 14.2827
0.000500000 14.0914
0.000515625 13.9405
0.000531250 13.7967
0.000546875 13.6595
0.000562500 13.5284
0.000578125 13.4030
0.000593750 13.2829
0.000609375 13.1677
0.000625000 13.0572
0.000640625 12.9509
0.000656250 12.8487
0.000671875 12.7504
0.000687500 12.6556
0.000718750 12.4759
0.000750000 12.3083
0.000781250 12.1514
0.000812500 12.0043
0.000843750 11.8659
0.000875000 11.7354
0.000906250 11.6121
0.000937500 11.4954
0.000968750 11.3847
0.00100000 11.2795
0.00103125 11.1795
0.00106250 11.0841
0.00109375 10.9931
0.00112500 10.9061
0.00115625 10.8229
0.00118750 10.7431
0.00121875 10.6666
0.00125000 10.5932
0.00128125 10.5226
0.00131250 10.4547
0.00134375 10.3892
0.00137500 10.3262
0.00143750 10.2066
0.00150000 10.0949
0.00156250 9.99034
0.00162500 9.89217
0.00168750 9.79976
0.00175000 9.71258
0.00181250 9.63016
0.00187500 9.55208
0.00193750 9.47799
0.00200000 9.40755
0.00209375 9.30812
0.00218750 9.21543
0.00228125 9.12875
0.00237500 9.04748
0.00246875 8.97106
0.00256250 8.89905
0.00265625 8.83103
0.00275000 8.76666
0.00284375 8.70562
0.00293750 8.64764
0.00303125 8.59246
0.00312500 8.53988
0.00321875 8.48970
0.00331250 8.44174
0.00340625 8.39585
0.00350000 8.35188
0.00359375 8.30969
0.00368750 8.26919
0.00378125 8.23024
0.00387500 8.19277
0.00396875 8.15668
0.00406250 8.12189
0.00425000 8.05589
0.00443750 7.99426
0.00462500 7.93653
0.00481250 7.88231
0.00500000 7.83126
0.00515625 7.79093
0.00531250 7.75244
0.00546875 7.71566
0.00562500 7.68047
0.00578125 7.64675
0.00593750 7.61441
0.00609375 7.58335
0.00625000 7.55350
0.00640625 7.52478
0.00656250 7.49711
0.00671875 7.47045
0.00687500 7.44471
0.00718750 7.39586
0.00750000 7.35016
0.00781250 7.30730
0.00812500 7.26699
0.00843750 7.22900
0.00875000 7.19311
0.00906250 7.15913
0.00937500 7.12690
0.00968750 7.09628
0.0100000 7.06714
0.0103125 7.03936
0.0106250 7.01285
0.0109375 6.98750
0.0112500 6.96323
0.0115625 6.93998
0.0118750 6.91767
0.0121875 6.89624
0.0125000 6.87564
0.0128125 6.85581
0.0131250 6.83671
0.0134375 6.81829
0.0137500 6.80051
0.0143750 6.76674
0.0150000 6.73514
0.0156250 6.70549
0.0162500 6.67760
0.0168750 6.65129
0.0175000 6.62643
0.0181250 6.60288
0.0187500 6.58054
0.0193750 6.55931
0.0200000 6.53910
0.0206625 6.51870
0.0213250 6.49927
0.0219875 6.48074
0.0226500 6.46304
0.0233125 6.44611
0.0239750 6.42990
0.0246375 6.41436
0.0253000 6.39944
0.0264578 6.37474
0.0276156 6.35164
0.0287734 6.32996
0.0299313 6.30958
0.0310891 6.29036
0.0322469 6.27219
0.0334047 6.25499
0.0345625 6.23867
0.0355274 6.22570
0.0364922 6.21324
0.0374570 6.20127
0.0384219 6.18976
0.0393867 6.17868
0.0403516 6.16801
0.0413164 6.15771
0.0422813 6.14777
0.0442109 6.12889
0.0461406 6.11122
0.0480703 6.09463
0.0500000 6.07903
0.0515625 6.06704
0.0531250 6.05560
0.0546875 6.04465
0.0562500 6.03417
0.0578125 6.02412
0.0593750 6.01447
0.0609375 6.00520
0.0625000 5.99629
0.0640625 5.98770
0.0656250 5.97943
0.0671875 5.97146
0.0687500 5.96376
0.0718750 5.94912
0.0750000 5.93541
0.0781250 5.92253
0.0812500 5.91041
0.0843750 5.89897
0.0875000 5.88816
0.0906250 5.87791
0.0937500 5.86818
0.0968750 5.85894
0.100000 5.85013
0.103125 5.84173
0.106250 5.83370
0.109375 5.82602
0.112500 5.81867
0.115625 5.81162
0.118750 5.80485
0.121875 5.79835
0.125000 5.79209
0.128125 5.78607
0.131250 5.78027
0.134375 5.77467
0.137500 5.76927
0.143750 5.75900
0.150000 5.74938
0.156250 5.74034
0.162500 5.73183
0.168750 5.72380
0.175000 5.71620
0.181250 5.70901
0.187500 5.70219
0.193750 5.69570
0.200000 5.68952
0.209375 5.68079
0.218750 5.67262
0.228125 5.66497
0.237500 5.65778
0.246875 5.65101
0.256250 5.64462
0.265625 5.63857
0.275000 5.63285
0.284375 5.62742
0.293750 5.62225
0.303125 5.61734
0.312500 5.61265
0.321875 5.60818
0.331250 5.60391
0.340625 5.59982
0.350000 5.59591
0.359375 5.59215
0.368750 5.58855
0.378125 5.58510
0.387500 5.58178
0.396875 5.57859
0.406250 5.57553
0.425000 5.56973
0.443750 5.56434
0.462500 5.55933
0.500000 5.55034
0.531250 5.54377
0.562500 5.53792
0.593750 5.53277
0.625000 5.52827
0.656250 5.52440
0.687500 5.52115
0.718750 5.51856
0.750000 5.51664
0.781250 5.51547
0.804688 5.51514
0.828125 5.51535
0.851563 5.51615
0.875000 5.51765
0.906250 5.52091
0.921875 5.52320
0.937500 5.52603
0.953125 5.52948
0.968750 5.53365
0.984375 5.53864
1.00000 5.54461
1.01483 5.55134
1.02965 5.55929
1.04447 5.56871
1.05930 5.57989
1.06671 5.58625
1.07412 5.59322
1.08153 5.60084
1.08895 5.60921
1.09636 5.61840
1.10377 5.62850
1.11118 5.63963
1.11859 5.65192
1.12848 5.67034
1.13836 5.69147
1.14330 5.70320
1.14824 5.71579
1.15319 5.72932
1.15813 5.74388
1.16307 5.75955
1.16801 5.77644
1.17295 5.79465
1.17789 5.81431
1.18283 5.83554
1.18778 5.85848
1.19272 5.88329
1.19766 5.91012
1.20309 5.94218
1.20853 5.97711
1.21396 6.01516
1.21940 6.05655
1.22484 6.10150
1.23027 6.15017
1.23571 6.20270
1.24114 6.25913
1.24725 6.32715
1.25336 6.39976
1.25946 6.47647
1.26557 6.55641
1.27779 6.72094
1.28389 6.80209
1.29000 6.87967
1.29463 6.93461
1.29925 6.98507
1.30388 7.03003
1.30850 7.06848
1.31313 7.09957
1.31775 7.12255
1.32238 7.13690
1.32700 7.14229
1.33105 7.13957
1.33509 7.12998
1.33914 7.11374
1.34319 7.09118
1.34724 7.06276
1.35128 7.02899
1.35533 6.99050
1.35938 6.94795
1.36747 6.85332
1.37556 6.75055
1.39175 6.53961
1.39817 6.45910
1.40459 6.38229
1.41101 6.30992
1.41743 6.24242
1.42386 6.17994
1.43028 6.12246
1.43670 6.06983
1.44312 6.02178
1.44955 5.97791
1.45599 5.93801
1.46242 5.90173
1.46886 5.86873
1.47529 5.83870
1.48173 5.81135
1.48816 5.78640
1.49459 5.76361
1.50103 5.74276
1.50746 5.72365
1.51390 5.70610
1.52033 5.68995
1.52677 5.67507
1.53320 5.66133
1.53964 5.64861
1.54607 5.63683
1.55251 5.62589
1.55894 5.61573
1.56538 5.60625
1.57181 5.59742
1.58468 5.58143
1.59755 5.56740
1.60749 5.55768
1.61744 5.54883
1.62738 5.54074
1.63733 5.53331
1.64727 5.52648
1.65722 5.52018
1.67710 5.50894
1.69699 5.49921
1.71688 5.49072
1.73677 5.48325
1.75666 5.47663
1.77187 5.47207
1.78708 5.46787
1.81749 5.46041
1.84791 5.45396
1.87833 5.44830
1.90875 5.44329
1.93917 5.43881
1.96958 5.43478
2.00000 5.43113
2.04688 5.42610
2.09375 5.42165
2.14063 5.41766
2.18750 5.41407
2.28125 5.40774
2.37500 5.40226
2.46875 5.39741
2.56250 5.39305
2.65625 5.38907
2.75000 5.38541
2.93750 5.37876
3.12500 5.37281
3.31250 5.36738
3.50000 5.36237
3.68750 5.35768
3.87500 5.35327
4.06250 5.34908
4.25000 5.34509
4.62500 5.33758
5.00000 5.33061
5.31250 5.32512
5.62500 5.31988
5.93750 5.31484
6.25000 5.30999
6.56250 5.30529
6.87500 5.30073
7.50000 5.29198
8.12500 5.28364
8.75000 5.27563
9.37500 5.26790
10.0000 5.26040
10.4985 5.25457
10.9969 5.24886
11.4954 5.24323
11.9939 5.23769
12.4924 5.23226
12.9908 5.22691
13.4893 5.22164
13.9878 5.21649
14.3201 5.21320
14.5174 5.21139
14.6160 5.21057
14.7147 5.20984
14.8134 5.20931
14.8627 5.20916
14.9120 5.20915
14.9613 5.20935
14.9860 5.20957
15.0107 5.20990
15.0353 5.21040
15.0600 5.21111
15.0847 5.21213
15.0970 5.21280
15.1093 5.21359
15.1288 5.21515
15.1483 5.21718
15.1580 5.21841
15.1677 5.21979
15.1775 5.22135
15.1872 5.22309
15.1969 5.22502
15.2067 5.22715
15.2164 5.22947
15.2262 5.23199
15.2359 5.23470
15.2456 5.23757
15.2651 5.24372
15.2887 5.25152
15.3123 5.25898
15.3241 5.26231
15.3359 5.26523
15.3477 5.26761
15.3595 5.26939
15.3723 5.27053
15.3850 5.27081
15.3946 5.27044
15.4042 5.26958
15.4138 5.26825
15.4235 5.26648
15.4331 5.26432
15.4427 5.26180
15.4523 5.25900
15.4619 5.25596
15.4863 5.24764
15.5107 5.23917
15.5230 5.23513
15.5352 5.23131
15.5474 5.22775
15.5596 5.22449
15.5751 5.22077
15.5907 5.21755
15.6062 5.21479
15.6218 5.21245
15.6373 5.21047
15.6528 5.20880
15.6684 5.20739
15.6839 5.20619
15.6995 5.20516
15.7150 5.20428
15.7461 5.20283
15.7772 5.20168
15.8082 5.20074
15.8571 5.19953
15.9059 5.19852
16.0036 5.19687
16.1013 5.19549
16.1990 5.19424
16.3944 5.19195
16.5898 5.18980
17.1581 5.18384
17.8686 5.17661
18.5791 5.16947
19.2895 5.16242
20.0000 5.15553
20.2645 5.15310
20.3967 5.15196
20.5289 5.15092
20.6612 5.15005
20.7273 5.14974
20.7934 5.14956
20.8595 5.14960
20.8926 5.14975
20.9256 5.15004
20.9587 5.15051
20.9918 5.15126
21.0083 5.15178
21.0248 5.15243
21.0413 5.15324
21.0579 5.15426
21.0799 5.15601
21.1019 5.15835
21.1130 5.15979
21.1240 5.16144
21.1350 5.16333
21.1460 5.16548
21.1570 5.16790
21.1681 5.17063
21.1791 5.17367
21.1901 5.17703
21.2011 5.18071
21.2121 5.18472
21.2232 5.18903
21.2342 5.19361
21.2549 5.20283
21.2757 5.21247
21.2964 5.22200
21.3068 5.22651
21.3171 5.23075
21.3258 5.23400
21.3344 5.23695
21.3430 5.23955
21.3516 5.24176
21.3602 5.24355
21.3689 5.24488
21.3775 5.24574
21.3861 5.24610
21.3900 5.24611
21.3984 5.24576
21.4068 5.24495
21.4152 5.24368
21.4236 5.24198
21.4319 5.23985
21.4403 5.23735
21.4487 5.23450
21.4571 5.23135
21.4680 5.22686
21.4789 5.22203
21.5007 5.21173
21.5225 5.20119
21.5443 5.19108
21.5546 5.18657
21.5649 5.18230
21.5752 5.17829
21.5856 5.17455
21.5959 5.17109
21.6062 5.16792
21.6165 5.16502
21.6269 5.16239
21.6372 5.16001
21.6475 5.15786
21.6681 5.15421
21.6888 5.15129
21.7094 5.14895
21.7244 5.14755
21.7393 5.14634
21.7691 5.14440
21.7989 5.14289
21.8287 5.14169
21.8585 5.14070
21.8884 5.13985
21.9480 5.13844
22.0077 5.13729
22.0673 5.13629
22.1866 5.13456
22.3517 5.13248
22.5169 5.13059
22.8472 5.12703
23.1776 5.12363
23.5079 5.12034
23.8382 5.11715
24.1685 5.11412
24.4989 5.11133
24.6640 5.11012
24.8292 5.10912
24.9255 5.10867
25.0219 5.10836
25.1182 5.10825
25.2146 5.10842
25.3109 5.10902
25.3591 5.10954
25.4073 5.11027
25.4555 5.11126
25.5036 5.11260
25.5518 5.11441
25.5759 5.11553
25.6000 5.11685
25.6321 5.11898
25.6642 5.12162
25.6803 5.12320
25.6963 5.12498
25.7124 5.12700
25.7284 5.12930
25.7445 5.13194
25.7605 5.13498
25.7766 5.13852
25.7927 5.14264
25.8087 5.14749
25.8248 5.15323
25.8408 5.16005
25.8489 5.16394
25.8569 5.16819
25.8643 5.17250
25.8718 5.17718
25.8793 5.18228
25.8867 5.18781
25.8942 5.19384
25.9016 5.20038
25.9091 5.20750
25.9165 5.21521
25.9240 5.22357
25.9314 5.23262
25.9389 5.24242
25.9464 5.25298
25.9538 5.26437
25.9613 5.27659
25.9687 5.28972
25.9762 5.30374
25.9865 5.32475
25.9968 5.34756
26.0071 5.37222
26.0175 5.39870
26.0278 5.42695
26.0381 5.45680
26.0484 5.48811
26.0588 5.52065
26.0840 5.60362
26.1092 5.68690
26.1216 5.72576
26.1339 5.76226
26.1462 5.79554
26.1586 5.82475
26.1717 5.85052
26.1848 5.87010
26.1913 5.87737
26.1979 5.88288
26.2044 5.88659
26.2110 5.88847
26.2150 5.88871
26.2216 5.88759
26.2281 5.88464
26.2347 5.87987
26.2412 5.87332
26.2543 5.85512
26.2674 5.83058
26.2780 5.80675
26.2885 5.77975
26.2990 5.75009
26.3096 5.71829
26.3302 5.65174
26.3509 5.58289
26.3688 5.52420
26.3866 5.46822
26.3956 5.44166
26.4045 5.41626
26.4134 5.39206
26.4223 5.36920
26.4345 5.34005
26.4407 5.32643
26.4468 5.31348
26.4529 5.30113
26.4590 5.28943
26.4651 5.27832
26.4712 5.26782
26.4773 5.25789
26.4834 5.24852
26.4895 5.23969
26.4956 5.23139
26.5017 5.22358
26.5078 5.21626
26.5200 5.20292
26.5313 5.19205
26.5426 5.18243
26.5539 5.17391
26.5651 5.16637
26.5764 5.15969
26.5877 5.15377
26.5990 5.14850
26.6102 5.14382
26.6215 5.13963
26.6328 5.13588
26.6441 5.13251
26.6553 5.12947
26.6666 5.12672
26.6779 5.12421
26.7004 5.11984
26.7155 5.11731
26.7305 5.11504
26.7605 5.11113
26.7906 5.10786
26.8207 5.10510
26.8507 5.10273
26.8808 5.10066
26.9109 5.09883
26.9409 5.09721
27.0011 5.09444
27.0612 5.09214
27.1213 5.09017
27.1815 5.08846
27.2716 5.08625
27.3618 5.08433
27.5122 5.08157
27.6625 5.07917
27.8128 5.07702
27.9631 5.07501
28.1285 5.07293
28.2938 5.07095
28.6245 5.06720
28.9553 5.06368
29.2860 5.06036
29.6167 5.05724
29.9474 5.05435
30.1127 5.05301
30.2781 5.05175
30.4434 5.05059
30.6088 5.04953
30.8493 5.04823
31.0898 5.04726
31.3303 5.04673
31.5709 5.04675
31.6911 5.04703
31.8264 5.04762
31.9617 5.04856
32.0970 5.04993
32.2323 5.05183
32.3676 5.05443
32.5029 5.05793
32.6381 5.06266
32.7058 5.06562
32.7734 5.06910
32.8411 5.07320
32.9087 5.07809
32.9764 5.08398
33.0440 5.09114
33.1117 5.09995
33.1455 5.10515
33.1793 5.11100
33.2131 5.11761
33.2470 5.12514
33.2808 5.13377
33.3146 5.14374
33.3484 5.15538
33.3822 5.16909
33.4161 5.18545
33.4330 5.19487
33.4499 5.20529
33.4668 5.21686
33.4837 5.22977
33.5006 5.24427
33.5175 5.26064
33.5344 5.27926
33.5514 5.30056
33.5683 5.32510
33.5852 5.35356
33.5950 5.37231
33.6049 5.39284
33.6148 5.41542
33.6246 5.44022
33.6345 5.46757
33.6444 5.49770
33.6542 5.53098
33.6641 5.56769
33.6740 5.60827
33.6838 5.65301
33.6937 5.70244
33.7036 5.75687
33.7134 5.81685
33.7233 5.88271
33.7332 5.95504
33.7430 6.03411
33.7534 6.12481
33.7637 6.22379
33.7740 6.33162
33.7844 6.44838
33.7947 6.57450
33.8050 6.70981
33.8154 6.85450
33.8257 7.00807
33.8346 7.14780
33.8436 7.29360
33.8614 7.60117
33.8793 7.92564
33.8971 8.25982
33.9178 8.64712
33.9384 9.01912
33.9489 9.19612
33.9593 9.36225
33.9698 9.51556
33.9803 9.65358
33.9941 9.80947
34.0079 9.93120
34.0217 10.0156
34.0355 10.0605
34.0440 10.0678
34.0578 10.0466
34.0716 9.98505
34.0854 9.88489
34.0993 9.74890
34.1115 9.60150
34.1237 9.43206
34.1359 9.24367
34.1482 9.04021
34.1730 8.59484
34.1979 8.13194
34.2148 7.82004
34.2317 7.51966
34.2487 7.23610
34.2572 7.10195
34.2656 6.97337
34.2781 6.79535
34.2905 6.63059
34.3029 6.47902
34.3153 6.34079
34.3215 6.27642
34.3278 6.21532
34.3340 6.15730
34.3402 6.10228
34.3464 6.05017
34.3526 6.00087
34.3588 5.95429
34.3650 5.91032
34.3763 5.83665
34.3876 5.77065
34.3989 5.71156
34.4102 5.65884
34.4215 5.61176
34.4328 5.56984
34.4441 5.53244
34.4554 5.49914
34.4667 5.46941
34.4780 5.44288
34.4893 5.41914
34.5006 5.39790
34.5119 5.37882
34.5231 5.36168
34.5344 5.34621
34.5457 5.33225
34.5616 5.31487
34.5774 5.29968
34.5932 5.28633
34.6090 5.27456
34.6248 5.26414
34.6406 5.25488
34.6722 5.23926
34.7039 5.22675
34.7355 5.21668
34.7671 5.20856
34.7987 5.20205
34.8349 5.19620
34.8846 5.19044
34.9343 5.18679
34.9840 5.18484
35.0337 5.18432
35.0834 5.18502
35.1331 5.18678
35.2325 5.19311
35.3319 5.20275
35.4313 5.21545
35.5307 5.23114
35.6300 5.24991
35.7294 5.27197
35.8288 5.29763
35.9282 5.32731
36.0276 5.36154
36.1270 5.40102
36.1767 5.42297
36.2264 5.44656
36.2761 5.47192
36.3258 5.49921
36.3755 5.52859
36.4252 5.56025
36.5020 5.61416
36.5788 5.67492
36.6556 5.74359
36.7324 5.82141
36.7708 5.86423
36.8092 5.90994
36.8476 5.95879
36.8860 6.01107
36.9245 6.06711
36.9629 6.12722
37.0013 6.19181
37.0397 6.26129
37.0894 6.35928
37.1391 6.46743
37.1888 6.58714
37.2384 6.71997
37.2881 6.86788
37.3378 7.03310
37.3875 7.21832
37.4124 7.31941
37.4372 7.42672
37.4621 7.54085
37.4869 7.66230
37.5118 7.79171
37.5366 7.92976
37.5615 8.07721
37.5863 8.23492
37.6112 8.40384
37.6360 8.58493
37.6609 8.77955
37.6857 8.98896
37.7106 9.21468
37.7354 9.45840
37.7603 9.72209
37.7851 10.0080
37.8100 10.3186
37.8348 10.6568
37.8597 11.0261
37.8845 11.4304
37.9094 11.8743
37.9342 12.3632
37.9591 12.9033
37.9839 13.5023
38.0088 14.1690
38.0336 14.9146
38.0460 15.3211
38.0585 15.7521
38.0709 16.2106
38.0833 16.6982
38.0957 17.2184
38.1082 17.7734
38.1206 18.3670
38.1330 19.0032
38.1454 19.6870
38.1579 20.4223
38.1703 21.2164
38.1827 22.0745
38.1951 23.0059
38.2076 24.0184
38.2200 25.1230
38.2324 26.3323
38.2414 27.2864
38.2505 28.3099
38.2595 29.4100
38.2685 30.5934
38.2776 31.8717
38.2866 33.2521
38.2957 34.7490
38.3047 36.3718
38.3137 38.1381
38.3228 40.0619
38.3318 42.1607
38.3408 44.4513
38.3499 46.9600
38.3589 49.7048
38.3679 52.7174
38.3770 56.0193
38.3832 58.4796
38.3894 61.0992
38.3956 63.8931
38.4018 66.8729
38.4080 70.0560
38.4143 73.4449
38.4205 77.0576
38.4267 80.9078
38.4329 85.0161
38.4391 89.3837
38.4453 94.0316
38.4515 98.9746
38.4577 104.237
38.4640 109.815
38.4702 115.734
38.4764 122.007
38.4809 126.805
38.4854 131.804
38.4899 137.009
38.4945 142.425
38.4990 148.058
38.5035 153.911
38.5080 159.990
38.5125 166.285
38.5170 172.825
38.5216 179.602
38.5261 186.618
38.5306 193.859
38.5351 201.360
38.5396 209.104
38.5442 217.094
38.5487 225.311
38.5554 238.121
38.5622 251.476
38.5690 265.366
38.5758 279.759
38.5826 294.677
38.5893 310.055
38.5961 325.912
38.6029 342.170
38.6142 370.148
38.6255 398.976
38.6368 428.470
38.6481 458.303
38.6605 491.207
38.6729 523.712
38.6853 555.393
38.6978 585.703
38.7102 614.163
38.7226 640.274
38.7344 662.404
38.7461 681.614
38.7557 694.962
38.7654 705.970
38.7750 714.532
38.7846 720.526
38.7923 723.432
38.8000 724.632
38.8077 724.118
38.8154 721.896
38.8270 715.407
38.8385 705.245
38.8501 691.593
38.8616 674.696
38.8766 648.470
38.8915 618.032
38.9031 592.145
38.9146 564.627
38.9262 535.882
38.9378 506.332
38.9527 467.449
38.9677 428.614
38.9826 390.465
38.9976 353.642
39.0125 318.572
39.0200 301.822
39.0275 285.645
39.0350 270.067
39.0425 255.112
39.0499 240.794
39.0574 227.141
39.0635 216.440
39.0696 206.175
39.0758 196.344
39.0819 186.943
39.0880 177.967
39.0941 169.408
39.1002 161.257
39.1064 153.518
39.1125 146.155
39.1186 139.168
39.1247 132.547
39.1308 126.277
39.1370 120.346
39.1431 114.740
39.1492 109.446
39.1553 104.458
39.1628 98.7359
39.1703 93.4133
39.1777 88.4659
39.1852 83.8698
39.1927 79.6018
39.2002 75.6396
39.2077 71.9619
39.2151 68.5525
39.2226 65.3831
39.2301 62.4400
39.2376 59.7060
39.2450 57.1683
39.2525 54.8049
39.2600 52.6054
39.2675 50.5566
39.2750 48.6489
39.2831 46.7100
39.2913 44.9095
39.2994 43.2353
39.3076 41.6762
39.3158 40.2223
39.3239 38.8643
39.3321 37.5939
39.3402 36.4052
39.3484 35.2883
39.3565 34.2386
39.3647 33.2507
39.3729 32.3205
39.3810 31.4413
39.3892 30.6101
39.4055 29.0783
39.4204 27.8074
39.4354 26.6478
39.4504 25.5858
39.4653 24.6105
39.4803 23.7106
39.4952 22.8792
39.5102 22.1077
39.5251 21.3911
39.5401 20.7232
39.5550 20.0999
39.5700 19.5166
39.5850 18.9703
39.5999 18.4570
39.6149 17.9748
39.6298 17.5203
39.6448 17.0920
