Te-122(n,g) ENDFB-8.0
Energy(eV) XS(b)
1.00000E-05 164.485
1.03125E-05 161.974
1.06250E-05 159.574
1.09375E-05 157.278
1.12500E-05 155.078
1.15625E-05 152.968
1.18750E-05 150.942
1.21875E-05 148.995
1.25000E-05 147.120
1.28125E-05 145.315
1.31250E-05 143.575
1.34375E-05 141.895
1.37500E-05 140.274
1.43750E-05 137.190
1.50000E-05 134.302
1.56250E-05 131.588
1.62500E-05 129.033
1.68750E-05 126.621
1.75000E-05 124.339
1.81250E-05 122.177
1.87500E-05 120.123
1.93750E-05 118.170
2.00000E-05 116.309
2.09375E-05 113.675
2.18750E-05 111.213
2.28125E-05 108.903
2.37500E-05 106.732
2.46875E-05 104.686
2.56250E-05 102.753
2.65625E-05 100.924
2.75000E-05 99.1885
2.84375E-05 97.5398
2.93750E-05 95.9707
3.03125E-05 94.4750
3.12500E-05 93.0471
3.21875E-05 91.6820
3.31250E-05 90.3753
3.40625E-05 89.1229
3.50000E-05 87.9212
3.59375E-05 86.7668
3.68750E-05 85.6568
3.78125E-05 84.5882
3.87500E-05 83.5587
3.96875E-05 82.5659
4.06250E-05 81.6077
4.25000E-05 79.7872
4.43750E-05 78.0834
4.62500E-05 76.4842
4.81250E-05 74.9795
5.00000E-05 73.5602
5.15625E-05 72.4371
5.31250E-05 71.3639
5.46875E-05 70.3370
5.62500E-05 69.3532
5.78125E-05 68.4096
5.93750E-05 67.5035
6.09375E-05 66.6324
6.25000E-05 65.7942
6.40625E-05 64.9869
6.56250E-05 64.2086
6.71875E-05 63.4576
6.87500E-05 62.7324
7.18750E-05 61.3535
7.50000E-05 60.0617
7.81250E-05 58.8482
8.12500E-05 57.7054
8.43750E-05 56.6267
8.75000E-05 55.6063
9.06250E-05 54.6392
9.37500E-05 53.7208
9.68750E-05 52.8473
0.000100000 52.0150
0.000103125 51.2208
0.000106250 50.4619
0.000109375 49.7358
0.000112500 49.0402
0.000115625 48.3729
0.000118750 47.7322
0.000121875 47.1163
0.000125000 46.5236
0.000128125 45.9528
0.000131250 45.4024
0.000134375 44.8714
0.000137500 44.3585
0.000143750 43.3835
0.000150000 42.4701
0.000156250 41.6120
0.000162500 40.8040
0.000168750 40.0412
0.000175000 39.3197
0.000181250 38.6358
0.000187500 37.9864
0.000193750 37.3687
0.000200000 36.7802
0.000209375 35.9474
0.000218750 35.1686
0.000228125 34.4384
0.000237500 33.7519
0.000246875 33.1048
0.000256250 32.4936
0.000265625 31.9150
0.000275000 31.3663
0.000284375 30.8450
0.000293750 30.3488
0.000303125 29.8758
0.000312500 29.4243
0.000321875 28.9926
0.000331250 28.5794
0.000340625 28.1833
0.000350000 27.8033
0.000359375 27.4383
0.000368750 27.0873
0.000378125 26.7494
0.000387500 26.4238
0.000396875 26.1099
0.000406250 25.8068
0.000425000 25.2312
0.000443750 24.6924
0.000462500 24.1867
0.000481250 23.7108
0.000500000 23.2620
0.000515625 22.9069
0.000531250 22.5675
0.000546875 22.2428
0.000562500 21.9317
0.000578125 21.6333
0.000593750 21.3468
0.000609375 21.0713
0.000625000 20.8063
0.000640625 20.5510
0.000656250 20.3049
0.000671875 20.0674
0.000687500 19.8380
0.000718750 19.4020
0.000750000 18.9935
0.000781250 18.6098
0.000812500 18.2484
0.000843750 17.9073
0.000875000 17.5847
0.000906250 17.2788
0.000937500 16.9884
0.000968750 16.7122
0.00100000 16.4490
0.00103125 16.1979
0.00106250 15.9579
0.00109375 15.7283
0.00112500 15.5083
0.00115625 15.2973
0.00118750 15.0947
0.00121875 14.9000
0.00125000 14.7126
0.00128125 14.5320
0.00131250 14.3580
0.00134375 14.1901
0.00137500 14.0279
0.00143750 13.7196
0.00150000 13.4308
0.00156250 13.1594
0.00162500 12.9039
0.00168750 12.6627
0.00175000 12.4346
0.00181250 12.2183
0.00187500 12.0130
0.00193750 11.8176
0.00200000 11.6315
0.00209375 11.3682
0.00218750 11.1219
0.00228125 10.8910
0.00237500 10.6739
0.00246875 10.4693
0.00256250 10.2760
0.00265625 10.0931
0.00275000 9.91957
0.00284375 9.75471
0.00293750 9.59781
0.00303125 9.44824
0.00312500 9.30546
0.00321875 9.16896
0.00331250 9.03830
0.00340625 8.91307
0.00350000 8.79290
0.00359375 8.67748
0.00368750 8.56648
0.00378125 8.45963
0.00387500 8.35669
0.00396875 8.25742
0.00406250 8.16161
0.00425000 7.97958
0.00443750 7.80921
0.00462500 7.64932
0.00481250 7.49886
0.00500000 7.35695
0.00515625 7.24465
0.00531250 7.13735
0.00546875 7.03468
0.00562500 6.93632
0.00578125 6.84197
0.00593750 6.75137
0.00609375 6.66429
0.00625000 6.58048
0.00640625 6.49977
0.00656250 6.42195
0.00671875 6.34687
0.00687500 6.27436
0.00718750 6.13650
0.00750000 6.00734
0.00781250 5.88602
0.00812500 5.77176
0.00843750 5.66391
0.00875000 5.56188
0.00906250 5.46519
0.00937500 5.37336
0.00968750 5.28602
0.0100000 5.20281
0.0103125 5.12341
0.0106250 5.04754
0.0109375 4.97495
0.0112500 4.90540
0.0115625 4.83870
0.0118750 4.77465
0.0121875 4.71309
0.0125000 4.65385
0.0128125 4.59679
0.0131250 4.54178
0.0134375 4.48870
0.0137500 4.43744
0.0143750 4.33999
0.0150000 4.24869
0.0156250 4.16292
0.0162500 4.08215
0.0168750 4.00590
0.0175000 3.93377
0.0181250 3.86541
0.0187500 3.80049
0.0193750 3.73874
0.0200000 3.67991
0.0206625 3.62049
0.0213250 3.56386
0.0219875 3.50981
0.0226500 3.45815
0.0233125 3.40871
0.0239750 3.36134
0.0246375 3.31590
0.0253000 3.27225
0.0264578 3.19994
0.0276156 3.13225
0.0287734 3.06868
0.0299313 3.00885
0.0310891 2.95240
0.0322469 2.89902
0.0334047 2.84845
0.0345625 2.80043
0.0355274 2.76223
0.0364922 2.72554
0.0374570 2.69028
0.0384219 2.65635
0.0393867 2.62367
0.0403516 2.59218
0.0413164 2.56179
0.0422813 2.53245
0.0442109 2.47667
0.0461406 2.42444
0.0480703 2.37538
0.0500000 2.32920
0.0515625 2.29373
0.0531250 2.25983
0.0546875 2.22740
0.0562500 2.19633
0.0578125 2.16653
0.0593750 2.13792
0.0609375 2.11042
0.0625000 2.08397
0.0640625 2.05849
0.0656250 2.03393
0.0671875 2.01024
0.0687500 1.98736
0.0718750 1.94386
0.0750000 1.90310
0.0781250 1.86481
0.0812500 1.82874
0.0843750 1.79469
0.0875000 1.76248
0.0906250 1.73196
0.0937500 1.70298
0.0968750 1.67542
0.100000 1.64916
0.103125 1.62411
0.106250 1.60017
0.109375 1.57727
0.112500 1.55534
0.115625 1.53430
0.118750 1.51410
0.121875 1.49468
0.125000 1.47600
0.128125 1.45801
0.131250 1.44068
0.134375 1.42396
0.137500 1.40782
0.143750 1.37713
0.150000 1.34837
0.156250 1.32133
0.162500 1.29588
0.168750 1.27186
0.175000 1.24914
0.181250 1.22761
0.187500 1.20717
0.193750 1.18775
0.200000 1.16925
0.209375 1.14307
0.218750 1.11859
0.228125 1.09562
0.237500 1.07404
0.246875 1.05370
0.256250 1.03450
0.265625 1.01632
0.275000 0.999088
0.284375 0.982720
0.293750 0.967146
0.303125 0.952305
0.312500 0.938140
0.321875 0.924603
0.331250 0.911648
0.340625 0.899235
0.350000 0.887327
0.359375 0.875891
0.368750 0.864898
0.378125 0.854319
0.387500 0.844134
0.396875 0.834322
0.406250 0.824863
0.425000 0.806889
0.443750 0.790047
0.462500 0.774244
0.500000 0.745425
0.531250 0.723805
0.562500 0.703979
0.593750 0.685757
0.625000 0.668937
0.687500 0.638847
0.750000 0.612653
0.812500 0.589587
0.875000 0.569133
0.937500 0.550792
1.00000 0.534176
1.06250 0.519080
1.12500 0.505287
1.18750 0.492624
1.25000 0.480947
1.37500 0.460092
1.50000 0.441977
1.62500 0.426062
1.75000 0.411974
1.87500 0.399372
2.00000 0.387980
2.18750 0.372851
2.37500 0.359655
2.56250 0.348018
2.75000 0.337687
2.93750 0.328431
3.12500 0.320067
3.31250 0.312485
3.50000 0.305577
3.87500 0.293452
4.25000 0.283156
4.62500 0.274309
5.00000 0.266641
5.31250 0.260995
5.62500 0.255916
6.25000 0.247190
6.87500 0.240010
7.50000 0.234053
8.12500 0.229083
8.75000 0.224937
9.37500 0.221474
10.0000 0.218589
10.6250 0.216209
11.2500 0.214272
12.5000 0.211531
13.4375 0.210346
14.3750 0.209746
15.0000 0.209675
16.2500 0.210220
17.5000 0.211615
18.7500 0.213792
20.0000 0.216707
21.8750 0.222444
23.7500 0.229830
25.6250 0.238933
27.5000 0.249887
28.4375 0.256119
29.3750 0.262893
30.3125 0.270248
31.2500 0.278224
32.1875 0.286870
33.1250 0.296240
34.0625 0.306397
35.0000 0.317410
35.9375 0.329362
36.8750 0.342343
37.8125 0.356460
38.7500 0.371832
39.6875 0.388597
40.6250 0.406917
41.5625 0.426974
42.5000 0.448984
43.4375 0.473195
44.3750 0.499900
45.3125 0.529443
46.2500 0.562232
47.1875 0.598749
48.1250 0.639493
48.5938 0.661652
49.0625 0.685230
49.5313 0.710268
50.0000 0.736941
50.7308 0.781997
51.4616 0.831798
52.1925 0.887091
52.9233 0.948710
53.2887 0.982119
53.6541 1.01765
54.0195 1.05497
54.3849 1.09445
54.7503 1.13675
55.1157 1.18175
55.4812 1.22970
55.8466 1.28085
56.3194 1.35228
56.7923 1.43029
57.2652 1.51571
57.7381 1.60954
58.2110 1.71290
58.6838 1.82717
59.1567 1.95391
59.6296 2.09503
59.9090 2.18610
60.1885 2.28352
60.4679 2.38783
60.7473 2.49932
61.0268 2.61949
61.1665 2.68309
61.3062 2.74912
61.4459 2.81770
61.5856 2.88894
61.7253 2.96298
61.8650 3.04002
61.9564 3.09212
62.0478 3.14562
62.1391 3.20058
62.2305 3.25704
62.3218 3.31506
62.4132 3.37468
62.5045 3.43598
62.5959 3.49903
62.6550 3.54079
62.7141 3.58333
62.7732 3.62666
62.8323 3.67081
62.8914 3.71579
62.9505 3.76164
63.0096 3.80836
63.0687 3.85598
63.1520 3.92467
63.1937 3.95972
63.2353 3.99525
63.2770 4.03128
63.3186 4.06782
63.3603 4.10487
63.3811 4.12358
63.4019 4.14243
63.4342 4.17188
63.4664 4.20165
63.4866 4.22044
63.5067 4.23935
63.5269 4.25838
63.5470 4.27755
63.5873 4.31629
63.6276 4.35558
63.6545 4.38208
63.6814 4.40883
63.7351 4.46309
63.7888 4.51838
63.8426 4.57472
63.8963 4.63216
63.9500 4.69071
64.0038 4.75041
64.0575 4.81128
64.1166 4.87964
64.1757 4.94950
64.2348 5.02091
64.2939 5.09392
64.3531 5.16857
64.4122 5.24491
64.4713 5.32300
64.5304 5.40289
64.5895 5.48465
64.6486 5.56831
64.7077 5.65394
64.7668 5.74161
64.8259 5.83138
64.8851 5.92332
64.9442 6.01750
65.0033 6.11400
65.0624 6.21289
65.1215 6.31425
65.1806 6.41817
65.2397 6.52472
65.2988 6.63402
65.3579 6.74614
65.4170 6.86119
65.4762 6.97928
65.5191 7.06714
65.5621 7.15670
65.6051 7.24803
65.6481 7.34115
65.6911 7.43612
65.7341 7.53298
65.8201 7.73256
65.9060 7.94033
65.9920 8.15673
66.0780 8.38223
66.1640 8.61735
66.2231 8.78493
66.2822 8.95750
66.3413 9.13530
66.4004 9.31854
66.4595 9.50745
66.5186 9.70226
66.5778 9.90322
66.6369 10.1106
66.6960 10.3247
66.7551 10.5457
66.8142 10.7741
66.8733 11.0100
66.9324 11.2540
66.9915 11.5062
67.0506 11.7672
67.1097 12.0373
67.1689 12.3169
67.2280 12.6065
67.2871 12.9067
67.3462 13.2178
67.4053 13.5405
67.4644 13.8753
67.5235 14.2229
67.5826 14.5839
67.6417 14.9590
67.7008 15.3490
67.7600 15.7546
67.8191 16.1768
67.8782 16.6164
67.9373 17.0743
67.9964 17.5518
68.0555 18.0498
68.1146 18.5695
68.1737 19.1123
68.2328 19.6796
68.2919 20.2729
68.3511 20.8937
68.4102 21.5438
68.4693 22.2251
68.5284 22.9396
68.5875 23.6895
68.6466 24.4771
68.7057 25.3051
68.7648 26.1761
68.8239 27.0933
68.8830 28.0598
68.9422 29.0793
69.0013 30.1560
69.0604 31.2943
69.1195 32.4991
69.1786 33.7759
69.2377 35.1305
69.2968 36.5694
69.3559 38.0996
69.4150 39.7290
69.4741 41.4663
69.5333 43.3214
69.5924 45.3051
69.6515 47.4297
69.7106 49.7088
69.7697 52.1580
69.8288 54.7946
69.8879 57.6383
69.9470 60.7117
70.0061 64.0408
70.0653 67.6537
70.1244 71.5844
70.1835 75.8718
70.2426 80.5604
70.2721 83.0715
70.3017 85.7023
70.3313 88.4624
70.3608 91.3585
70.3904 94.4017
70.4199 97.6002
70.4495 100.967
70.4790 104.512
70.5086 108.250
70.5381 112.193
70.5677 116.360
70.5972 120.765
70.6268 125.428
70.6564 130.369
70.6859 135.613
70.7155 141.182
70.7450 147.107
70.7746 153.416
70.8041 160.147
70.8337 167.335
70.8632 175.028
70.8928 183.270
70.9250 192.958
70.9573 203.445
70.9895 214.826
71.0218 227.209
71.0540 240.720
71.0863 255.493
71.1185 271.699
71.1507 289.532
71.1803 307.508
71.2098 327.244
71.2394 348.996
71.2690 373.035
71.2837 386.023
71.2985 399.717
71.3133 414.168
71.3281 429.424
71.3428 445.567
71.3576 462.654
71.3724 480.762
71.3872 499.956
71.4020 520.354
71.4167 542.038
71.4315 565.116
71.4463 589.687
71.4611 615.909
71.4758 643.906
71.4906 673.827
71.5054 705.812
71.5202 740.082
71.5350 776.804
71.5497 816.185
71.5645 858.412
71.5793 903.776
71.5941 952.497
71.6088 1004.84
71.6236 1061.02
71.6411 1132.88
71.6585 1211.00
71.6760 1295.95
71.6935 1388.12
71.7109 1488.08
71.7284 1596.16
71.7459 1712.81
71.7633 1838.36
71.7781 1951.78
71.7929 2071.85
71.8077 2198.59
71.8224 2331.87
71.8372 2471.73
71.8520 2617.85
71.8668 2769.91
71.8815 2927.36
71.9111 3256.60
71.9407 3599.41
71.9998 4292.95
72.0189 4508.76
72.0380 4715.17
72.0571 4908.93
72.0762 5086.80
72.0953 5245.67
72.1144 5382.62
72.1335 5495.10
72.1526 5580.87
72.1763 5647.78
72.1882 5664.21
72.2000 5669.11
72.2193 5652.40
72.2385 5605.49
72.2578 5529.34
72.2770 5425.54
72.2962 5296.06
72.3155 5143.45
72.3347 4970.55
72.3540 4780.59
72.3719 4591.00
72.3898 4392.17
72.4257 3976.99
72.4615 3554.73
72.4974 3142.64
72.5159 2937.90
72.5344 2740.82
72.5530 2552.49
72.5715 2373.79
72.5901 2205.06
72.6086 2046.70
72.6271 1898.81
72.6457 1761.35
72.6642 1633.94
72.6827 1516.29
72.7013 1407.97
72.7198 1308.52
72.7384 1217.27
72.7569 1133.72
72.7754 1057.29
72.7940 987.444
72.8075 940.396
72.8209 896.352
72.8344 855.080
72.8479 816.396
72.8614 780.096
72.8749 746.067
72.8883 714.124
72.9018 684.120
72.9153 655.897
72.9288 629.368
72.9423 604.393
72.9558 580.862
72.9692 558.671
72.9827 537.726
72.9962 517.939
73.0097 499.230
73.0282 475.122
73.0468 452.735
73.0653 431.911
73.0838 412.520
73.1024 394.415
73.1209 377.494
73.1394 361.654
73.1580 346.814
73.1765 332.875
73.1951 319.772
73.2136 307.440
73.2321 295.823
73.2507 284.857
73.2692 274.503
73.3063 255.436
73.3433 238.308
73.3804 222.866
73.4175 208.894
73.4546 196.212
73.4917 184.660
73.5287 174.110
73.5658 164.445
73.6029 155.571
73.6383 147.758
73.6737 140.523
73.7090 133.810
73.7444 127.568
73.7798 121.755
73.8152 116.331
73.8506 111.263
73.8860 106.521
73.9214 102.075
73.9568 97.9020
73.9922 93.9801
74.0275 90.2894
74.0629 86.8122
74.0983 83.5322
74.1337 80.4349
74.1691 77.5076
74.2062 74.6080
74.2432 71.8689
74.3174 66.8241
74.3915 62.2923
74.4657 58.2062
74.5398 54.5089
74.6140 51.1527
74.6881 48.0967
74.7623 45.3061
74.8095 43.6546
74.8567 42.0916
74.9510 39.2074
75.0454 36.6100
75.1398 34.2627
75.2342 32.1337
75.3285 30.1965
75.4229 28.4279
75.5173 26.8088
75.5914 25.6308
75.6656 24.5283
75.7397 23.4950
75.8139 22.5252
75.8880 21.6140
75.9622 20.7566
76.0363 19.9490
76.1105 19.1874
76.1846 18.4683
76.2588 17.7886
76.4071 16.5364
76.5554 15.4111
76.7037 14.3962
76.8520 13.4776
77.0003 12.6435
77.1486 11.8840
77.2969 11.1903
77.4452 10.5552
77.5935 9.97220
77.7418 9.43579
77.8901 8.94124
78.0181 8.54474
78.1462 8.17425
78.2743 7.82739
78.4024 7.50178
78.5304 7.19544
78.6585 6.90704
78.7866 6.63534
78.9147 6.37920
79.0427 6.13742
79.1708 5.90900
79.2989 5.69294
79.4270 5.48839
79.6831 5.11065
79.9393 4.77016
80.0876 4.58818
80.2359 4.41628
80.3842 4.25374
80.5325 4.09989
80.8291 3.81591
81.1257 3.56008
81.4223 3.32880
81.7188 3.11904
82.0154 2.92823
82.3120 2.75416
82.6356 2.58113
82.9592 2.42368
83.2827 2.27999
83.6063 2.14851
83.9298 2.02790
84.2534 1.91709
84.5770 1.81545
84.9005 1.72122
85.1971 1.64088
85.4937 1.56592
85.7903 1.49588
86.0869 1.43037
86.3835 1.36899
86.6801 1.31139
86.9767 1.25730
87.2733 1.20643
87.5699 1.15851
87.8665 1.11335
88.1631 1.07073
88.4597 1.03045
88.7563 0.992361
89.0529 0.956313
89.6461 0.889741
90.2393 0.829764
90.8325 0.775533
91.4257 0.726345
92.0189 0.681606
92.6121 0.640790
93.2052 0.603464
93.7984 0.569241
94.3916 0.537788
95.0927 0.503802
95.7937 0.472873
96.4948 0.444705
97.1958 0.419041
97.8969 0.395383
98.5979 0.373582
99.2990 0.353471
100.000 0.334923
100.537 0.321702
101.074 0.309221
101.611 0.297407
102.149 0.286288
103.223 0.265770
104.297 0.247376
105.371 0.230761
106.445 0.215763
107.520 0.202162
108.594 0.189775
109.668 0.178498
110.742 0.168177
111.817 0.158717
112.891 0.150038
113.965 0.142036
115.039 0.134662
116.113 0.127848
117.188 0.121545
118.164 0.116272
119.141 0.111252
120.117 0.106555
121.094 0.102205
122.070 0.0980488
123.047 0.0941963
125.000 0.0871044
126.074 0.0835818
127.149 0.0802554
128.223 0.0771064
129.297 0.0741794
131.445 0.0687920
132.520 0.0663351
133.594 0.0640216
134.668 0.0618138
135.742 0.0597343
137.891 0.0559096
140.039 0.0524717
142.188 0.0493604
144.141 0.0468062
146.094 0.0444716
148.047 0.0423285
150.000 0.0403637
151.563 0.0389119
153.125 0.0375554
154.688 0.0362873
156.250 0.0351011
157.813 0.0339911
159.375 0.0329542
162.500 0.0310732
165.625 0.0294241
168.750 0.0279834
171.875 0.0267306
175.000 0.0256499
177.344 0.0249546
179.688 0.0243416
182.031 0.0238048
184.375 0.0233492
186.719 0.0229980
189.063 0.0227344
191.406 0.0225453
193.750 0.0224761
195.313 0.0224976
196.875 0.0225786
198.438 0.0227265
200.000 0.0229518
201.492 0.0232552
202.985 0.0236353
204.477 0.0241389
205.970 0.0247753
207.462 0.0255797
208.208 0.0260547
208.954 0.0265869
209.701 0.0271861
210.447 0.0278596
211.193 0.0286149
211.939 0.0294658
212.685 0.0304289
213.432 0.0315085
214.178 0.0327494
214.924 0.0341675
215.670 0.0357951
216.416 0.0376730
216.789 0.0387214
217.163 0.0398526
217.536 0.0410753
217.909 0.0423990
218.406 0.0443417
218.904 0.0465157
219.401 0.0489585
219.899 0.0517135
220.396 0.0548262
220.645 0.0565385
220.893 0.0583733
221.142 0.0603417
221.391 0.0624527
221.640 0.0647201
221.888 0.0671598
222.230 0.0708302
222.572 0.0749130
222.914 0.0794736
223.256 0.0845895
223.427 0.0873843
223.598 0.0903545
223.769 0.0935153
223.940 0.0968832
224.111 0.100477
224.282 0.104317
224.453 0.108426
224.624 0.112830
224.858 0.119365
225.091 0.126586
225.324 0.134587
225.557 0.143485
225.790 0.153427
225.907 0.158845
226.024 0.164595
226.140 0.170704
226.257 0.177201
226.373 0.184120
226.490 0.191491
226.661 0.203225
226.832 0.216185
227.003 0.230547
227.174 0.246523
227.345 0.264366
227.430 0.274079
227.516 0.284378
227.601 0.295311
227.687 0.306931
227.772 0.319297
227.858 0.332458
227.990 0.354601
228.122 0.379150
228.254 0.406509
228.320 0.421372
228.386 0.437082
228.453 0.453757
228.519 0.471453
228.585 0.490257
228.651 0.510234
228.717 0.531551
228.783 0.554264
228.849 0.578573
228.915 0.604555
229.000 0.641026
229.086 0.681058
229.171 0.725138
229.257 0.773838
229.342 0.827841
229.428 0.887960
229.471 0.920651
229.513 0.955177
229.556 0.991854
229.599 1.03068
229.640 1.07015
229.681 1.11192
229.721 1.15630
229.762 1.20352
229.803 1.25383
229.844 1.30751
229.885 1.36489
229.925 1.42633
229.966 1.49242
230.007 1.56329
230.048 1.63965
230.089 1.72211
230.130 1.81140
230.170 1.90834
230.211 2.01394
230.252 2.12937
230.295 2.26259
230.337 2.40986
230.380 2.57443
230.402 2.66405
230.423 2.75875
230.444 2.85995
230.466 2.96788
230.487 3.08327
230.508 3.20637
230.530 3.33933
230.551 3.48201
230.573 3.63709
230.594 3.80463
230.615 3.98799
230.637 4.18849
230.658 4.40854
230.679 4.64977
230.701 4.91766
230.722 5.21490
230.744 5.54582
230.765 5.91361
230.786 6.32741
230.797 6.55296
230.808 6.79214
230.818 7.04590
230.829 7.31527
230.840 7.60133
230.850 7.90232
230.861 8.22513
230.872 8.56832
230.882 8.93325
230.893 9.32138
230.904 9.73425
230.915 10.1735
230.925 10.6408
230.936 11.1331
230.949 11.7899
230.962 12.4931
230.975 13.2513
230.988 14.0686
231.002 14.9560
231.015 15.9047
231.028 16.9256
231.041 18.0236
231.054 19.2130
231.067 20.4808
231.080 21.8410
231.093 23.2990
231.107 24.8726
231.120 26.5435
231.133 28.3289
231.146 30.2342
231.157 31.8835
231.167 33.6195
231.178 35.4454
231.189 37.3640
231.199 39.3781
231.210 41.4906
231.221 43.7040
231.231 45.9988
231.241 48.2128
231.251 50.4932
231.261 52.8637
231.270 55.3258
231.281 58.1493
231.292 61.0870
231.302 64.1401
231.313 67.2792
231.324 70.5640
231.334 73.9657
231.345 77.4841
231.356 81.0840
231.369 85.8682
231.383 90.8354
231.396 95.9816
231.410 101.301
231.431 110.008
231.453 119.095
231.474 128.523
231.496 138.198
231.517 148.155
231.538 158.283
231.581 178.715
231.624 198.895
231.667 218.148
231.688 227.171
231.709 235.666
231.731 243.540
231.752 250.674
231.773 257.052
231.795 262.566
231.816 267.129
231.837 270.717
231.861 273.490
231.884 274.981
231.900 275.252
231.908 275.169
231.933 273.901
231.959 271.130
231.976 268.388
231.993 265.006
232.010 261.096
232.027 256.646
232.059 246.667
232.092 235.008
232.125 221.329
232.159 206.541
232.196 189.464
232.232 171.928
232.300 140.052
232.334 124.816
232.367 110.351
232.384 103.441
232.401 96.8233
232.418 90.4309
232.435 84.3500
232.452 78.5155
232.468 73.0009
232.485 67.7428
232.502 62.8034
232.514 59.3676
232.527 56.0829
232.539 52.9472
232.551 49.9819
232.563 47.1356
232.576 44.4513
232.588 41.8817
232.600 39.4649
232.612 37.1573
