Te-124(n,tot) ENDFB-8.0
Energy(eV) XS(b)
1.00000E-05 356.092
1.03125E-05 350.673
1.06250E-05 345.495
1.09375E-05 340.541
1.12500E-05 335.795
1.15625E-05 331.243
1.18750E-05 326.872
1.21875E-05 322.671
1.25000E-05 318.628
1.28125E-05 314.734
1.31250E-05 310.981
1.34375E-05 307.359
1.37500E-05 303.861
1.43750E-05 297.212
1.50000E-05 290.984
1.56250E-05 285.134
1.62500E-05 279.625
1.68750E-05 274.426
1.75000E-05 269.508
1.81250E-05 264.847
1.87500E-05 260.422
1.93750E-05 256.213
2.00000E-05 252.203
2.09375E-05 246.529
2.18750E-05 241.225
2.28125E-05 236.252
2.37500E-05 231.577
2.46875E-05 227.172
2.56250E-05 223.011
2.65625E-05 219.073
2.75000E-05 215.339
2.84375E-05 211.791
2.93750E-05 208.415
3.03125E-05 205.198
3.12500E-05 202.126
3.21875E-05 199.191
3.31250E-05 196.381
3.40625E-05 193.689
3.50000E-05 191.105
3.59375E-05 188.624
3.68750E-05 186.239
3.78125E-05 183.943
3.87500E-05 181.731
3.96875E-05 179.598
4.06250E-05 177.540
4.25000E-05 173.631
4.43750E-05 169.973
4.62500E-05 166.541
4.81250E-05 163.312
5.00000E-05 160.268
5.15625E-05 157.859
5.31250E-05 155.558
5.46875E-05 153.357
5.62500E-05 151.249
5.78125E-05 149.227
5.93750E-05 147.286
6.09375E-05 145.421
6.25000E-05 143.626
6.40625E-05 141.898
6.56250E-05 140.232
6.71875E-05 138.625
6.87500E-05 137.073
7.18750E-05 134.125
7.50000E-05 131.363
7.81250E-05 128.770
8.12500E-05 126.329
8.43750E-05 124.026
8.75000E-05 121.848
9.06250E-05 119.785
9.37500E-05 117.827
9.68750E-05 115.965
0.000100000 114.191
0.000103125 112.500
0.000106250 110.884
0.000109375 109.339
0.000112500 107.859
0.000115625 106.440
0.000118750 105.078
0.000121875 103.769
0.000125000 102.510
0.000128125 101.298
0.000131250 100.130
0.000134375 99.0034
0.000137500 97.9156
0.000143750 95.8487
0.000150000 93.9137
0.000156250 92.0972
0.000162500 90.3878
0.000168750 88.7753
0.000175000 87.2510
0.000181250 85.8072
0.000187500 84.4371
0.000193750 83.1347
0.000200000 81.8945
0.000209375 80.1409
0.000218750 78.5027
0.000228125 76.9679
0.000237500 75.5261
0.000246875 74.1685
0.000256250 72.8871
0.000265625 71.6751
0.000275000 70.5266
0.000284375 69.4361
0.000293750 68.3991
0.000303125 67.4114
0.000312500 66.4690
0.000321875 65.5688
0.000331250 64.7077
0.000340625 63.8830
0.000350000 63.0922
0.000359375 62.3330
0.000368750 61.6034
0.000378125 60.9015
0.000387500 60.2257
0.000396875 59.5744
0.000406250 58.9461
0.000425000 57.7535
0.000443750 56.6386
0.000462500 55.5933
0.000481250 54.6107
0.000500000 53.6848
0.000515625 52.9528
0.000531250 52.2538
0.000546875 51.5856
0.000562500 50.9458
0.000578125 50.3326
0.000593750 49.7441
0.000609375 49.1788
0.000625000 48.6352
0.000640625 48.1119
0.000656250 47.6078
0.000671875 47.1216
0.000687500 46.6523
0.000718750 45.7609
0.000750000 44.9266
0.000781250 44.1438
0.000812500 43.4072
0.000843750 42.7126
0.000875000 42.0561
0.000906250 41.4343
0.000937500 40.8444
0.000968750 40.2837
0.00100000 39.7499
0.00103125 39.2408
0.00106250 38.7547
0.00109375 38.2899
0.00112500 37.8449
0.00115625 37.4183
0.00118750 37.0088
0.00121875 36.6155
0.00125000 36.2371
0.00128125 35.8729
0.00131250 35.5219
0.00134375 35.1834
0.00137500 34.8567
0.00143750 34.2359
0.00150000 33.6547
0.00156250 33.1092
0.00162500 32.5959
0.00168750 32.1117
0.00175000 31.6539
0.00181250 31.2203
0.00187500 30.8088
0.00193750 30.4176
0.00200000 30.0451
0.00209375 29.5182
0.00218750 29.0260
0.00228125 28.5647
0.00237500 28.1312
0.00246875 27.7229
0.00256250 27.3375
0.00265625 26.9728
0.00275000 26.6271
0.00284375 26.2988
0.00293750 25.9865
0.00303125 25.6889
0.00312500 25.4049
0.00321875 25.1335
0.00331250 24.8738
0.00340625 24.6250
0.00350000 24.3864
0.00359375 24.1572
0.00368750 23.9369
0.00378125 23.7249
0.00387500 23.5207
0.00396875 23.3238
0.00406250 23.1339
0.00425000 22.7731
0.00443750 22.4356
0.00462500 22.1190
0.00481250 21.8212
0.00500000 21.5405
0.00515625 21.3184
0.00531250 21.1062
0.00546875 20.9033
0.00562500 20.7089
0.00578125 20.5225
0.00593750 20.3436
0.00609375 20.1716
0.00625000 20.0062
0.00640625 19.8469
0.00656250 19.6933
0.00671875 19.5452
0.00687500 19.4021
0.00718750 19.1302
0.00750000 18.8756
0.00781250 18.6365
0.00812500 18.4114
0.00843750 18.1990
0.00875000 17.9981
0.00906250 17.8077
0.00937500 17.6270
0.00968750 17.4551
0.0100000 17.2914
0.0103125 17.1352
0.0106250 16.9860
0.0109375 16.8433
0.0112500 16.7066
0.0115625 16.5755
0.0118750 16.4496
0.0121875 16.3286
0.0125000 16.2122
0.0128125 16.1001
0.0131250 15.9921
0.0134375 15.8878
0.0137500 15.7872
0.0143750 15.5958
0.0150000 15.4166
0.0156250 15.2482
0.0162500 15.0897
0.0168750 14.9401
0.0175000 14.7986
0.0181250 14.6644
0.0187500 14.5371
0.0193750 14.4160
0.0200000 14.3006
0.0206625 14.1841
0.0213250 14.0730
0.0219875 13.9671
0.0226500 13.8658
0.0233125 13.7689
0.0239750 13.6760
0.0246375 13.5869
0.0253000 13.5013
0.0264578 13.3596
0.0276156 13.2269
0.0287734 13.1023
0.0299313 12.9851
0.0310891 12.8744
0.0322469 12.7698
0.0334047 12.6707
0.0345625 12.5766
0.0355274 12.5017
0.0364922 12.4297
0.0374570 12.3606
0.0384219 12.2941
0.0393867 12.2300
0.0403516 12.1683
0.0413164 12.1087
0.0422813 12.0512
0.0442109 11.9418
0.0461406 11.8394
0.0480703 11.7431
0.0500000 11.6525
0.0515625 11.5829
0.0531250 11.5164
0.0546875 11.4527
0.0562500 11.3917
0.0578125 11.3332
0.0593750 11.2770
0.0609375 11.2230
0.0625000 11.1710
0.0640625 11.1210
0.0656250 11.0727
0.0671875 11.0261
0.0687500 10.9812
0.0718750 10.8956
0.0750000 10.8154
0.0781250 10.7400
0.0812500 10.6690
0.0843750 10.6019
0.0875000 10.5384
0.0906250 10.4782
0.0937500 10.4211
0.0968750 10.3667
0.100000 10.3148
0.103125 10.2653
0.106250 10.2180
0.109375 10.1727
0.112500 10.1292
0.115625 10.0876
0.118750 10.0476
0.121875 10.0091
0.125000 9.97200
0.128125 9.93630
0.131250 9.90187
0.134375 9.86865
0.137500 9.83655
0.143750 9.77547
0.150000 9.71815
0.156250 9.66422
0.162500 9.61338
0.168750 9.56532
0.175000 9.51982
0.181250 9.47665
0.187500 9.43561
0.193750 9.39655
0.200000 9.35930
0.209375 9.30650
0.218750 9.25701
0.228125 9.21049
0.237500 9.16667
0.246875 9.12530
0.256250 9.08614
0.265625 9.04900
0.275000 9.01370
0.284375 8.98010
0.293750 8.94805
0.303125 8.91744
0.312500 8.88816
0.321875 8.86010
0.331250 8.83319
0.340625 8.80734
0.350000 8.78248
0.359375 8.75855
0.368750 8.73549
0.378125 8.71324
0.387500 8.69176
0.396875 8.67102
0.406250 8.65097
0.425000 8.61273
0.443750 8.57672
0.462500 8.54275
0.500000 8.48031
0.531250 8.43299
0.562500 8.38922
0.593750 8.34862
0.625000 8.31079
0.687500 8.24216
0.750000 8.18127
0.812500 8.12661
0.875000 8.07716
0.937500 8.03194
1.00000 7.99018
1.06250 7.95148
1.12500 7.91541
1.18750 7.88163
1.25000 7.84986
1.37500 7.79141
1.50000 7.73859
1.62500 7.69033
1.75000 7.64588
1.87500 7.60456
2.00000 7.56581
2.18750 7.51190
2.37500 7.46219
2.56250 7.41594
2.75000 7.37262
2.93750 7.33176
3.12500 7.29298
3.31250 7.25606
3.50000 7.22077
3.68750 7.18693
3.87500 7.15438
4.06250 7.12301
4.25000 7.09270
4.62500 7.03490
5.00000 6.98040
5.31250 6.93715
5.62500 6.89562
5.93750 6.85566
6.25000 6.81712
6.56250 6.77988
6.87500 6.74383
7.18750 6.70887
7.50000 6.67494
7.81250 6.64197
8.12500 6.60988
8.75000 6.54820
9.37500 6.48949
10.0000 6.43344
10.6250 6.37983
11.2500 6.32844
11.8750 6.27909
12.5000 6.23163
13.1250 6.18593
13.7500 6.14187
14.3750 6.09933
15.0000 6.05824
15.6250 6.01849
16.2500 5.98002
16.8750 5.94275
17.5000 5.90662
18.1250 5.87157
18.7500 5.83755
19.3750 5.80452
20.0000 5.77242
20.9375 5.72592
21.8750 5.68128
22.8125 5.63839
23.7500 5.59714
24.6875 5.55743
25.6250 5.51916
26.5625 5.48227
27.5000 5.44667
28.4375 5.41229
29.3750 5.37906
30.3125 5.34693
31.2500 5.31584
32.1875 5.28574
33.1250 5.25658
34.0625 5.22832
35.0000 5.20090
35.9375 5.17430
36.8750 5.14848
37.8125 5.12340
38.7500 5.09904
40.6250 5.05232
42.5000 5.00807
44.3750 4.96610
46.2500 4.92625
48.1250 4.88835
50.0000 4.85225
51.5625 4.82345
53.1250 4.79576
54.6875 4.76909
56.2500 4.74340
57.8125 4.71863
59.3750 4.69472
60.9375 4.67164
62.5000 4.64934
64.0625 4.62777
65.6250 4.60691
67.1875 4.58671
68.7500 4.56715
70.3125 4.54819
71.8750 4.52980
73.4375 4.51196
75.0000 4.49466
78.1250 4.46150
81.2500 4.43016
84.3750 4.40048
87.5000 4.37233
90.6250 4.34559
93.7500 4.32015
96.8750 4.29591
100.000 4.27278
103.125 4.25068
106.250 4.22953
109.375 4.20928
112.500 4.18985
115.625 4.17120
118.750 4.15327
121.875 4.13602
125.000 4.11941
128.125 4.10340
131.250 4.08794
134.375 4.07302
137.500 4.05859
140.625 4.04462
143.750 4.03110
146.875 4.01800
150.000 4.00530
153.125 3.99297
156.250 3.98099
159.375 3.96935
162.500 3.95803
168.750 3.93627
175.000 3.91561
181.250 3.89593
187.500 3.87715
193.750 3.85918
200.000 3.84195
206.312 3.82527
212.624 3.80918
218.936 3.79366
225.249 3.77869
231.561 3.76416
237.873 3.75010
244.185 3.73643
250.497 3.72311
258.531 3.70666
266.564 3.69068
274.598 3.67511
282.631 3.65992
291.239 3.64401
295.543 3.63618
299.846 3.62842
304.150 3.62075
308.454 3.61314
312.758 3.60562
314.909 3.60188
317.061 3.59817
319.930 3.59326
322.800 3.58841
324.234 3.58601
325.669 3.58364
327.103 3.58130
328.538 3.57898
329.829 3.57694
331.120 3.57495
332.411 3.57302
333.702 3.57118
334.993 3.56945
336.285 3.56790
336.930 3.56721
337.576 3.56661
338.221 3.56611
338.867 3.56574
339.405 3.56557
339.943 3.56556
340.481 3.56576
341.019 3.56624
341.557 3.56709
341.826 3.56772
342.095 3.56852
342.364 3.56953
342.633 3.57080
342.902 3.57240
343.170 3.57442
343.404 3.57661
343.637 3.57933
343.870 3.58277
344.103 3.58717
344.220 3.58984
344.336 3.59292
344.453 3.59648
344.569 3.60062
344.686 3.60550
344.802 3.61129
344.919 3.61827
345.035 3.62681
345.134 3.63568
345.233 3.64660
345.282 3.65309
345.331 3.66044
345.381 3.66885
345.430 3.67857
345.479 3.68994
345.529 3.70334
345.578 3.71934
345.627 3.73865
345.677 3.76215
345.701 3.77585
345.726 3.79100
345.751 3.80789
345.775 3.82660
345.800 3.84751
345.824 3.87069
345.849 3.89662
345.874 3.92549
345.899 3.95762
345.923 3.99321
345.948 4.03291
345.972 4.07678
345.997 4.12556
346.022 4.17929
346.046 4.23881
346.071 4.30408
346.096 4.37604
346.120 4.45455
346.145 4.54064
346.170 4.63399
346.194 4.73572
346.219 4.84531
346.235 4.91968
346.250 4.99757
346.266 5.07902
346.282 5.16406
346.297 5.25270
346.313 5.34495
346.344 5.53950
346.376 5.74862
346.407 5.97106
346.439 6.20581
346.470 6.45075
346.513 6.79858
346.555 7.15819
346.640 7.88607
346.690 8.29272
346.739 8.67219
346.763 8.84023
346.786 8.99683
346.810 9.14134
346.833 9.27246
346.858 9.39452
346.882 9.49881
346.919 9.62114
346.956 9.69875
346.978 9.72293
347.000 9.73085
347.025 9.71984
347.050 9.68768
347.075 9.63445
347.105 9.54444
347.135 9.42689
347.169 9.25775
347.204 9.05719
347.228 8.90286
347.252 8.73765
347.299 8.37867
347.356 7.91902
347.412 7.44040
347.460 7.03397
347.507 6.63815
347.555 6.25958
347.579 6.07954
347.602 5.90629
347.623 5.76219
347.644 5.62382
347.664 5.49136
347.685 5.36557
347.705 5.24531
347.726 5.13123
347.747 5.02333
347.767 4.92204
347.788 4.82627
347.808 4.73641
347.829 4.65230
347.849 4.57413
347.870 4.50094
347.890 4.43323
347.911 4.37011
347.932 4.31195
347.949 4.26604
347.966 4.22340
347.984 4.18360
348.001 4.14649
348.018 4.11173
348.036 4.07959
348.053 4.04971
348.070 4.02197
348.105 3.97220
348.139 3.92959
348.174 3.89296
348.209 3.86169
348.243 3.83487
348.278 3.81198
348.313 3.79233
348.347 3.77554
348.382 3.76108
348.417 3.74866
348.451 3.73793
348.486 3.72866
348.521 3.72061
348.555 3.71363
348.625 3.70224
348.694 3.69358
348.763 3.68702
348.832 3.68215
348.902 3.67866
348.971 3.67638
349.040 3.67517
349.136 3.67509
349.231 3.67679
349.326 3.68025
349.422 3.68557
349.517 3.69297
349.612 3.70277
349.660 3.70875
349.707 3.71554
349.755 3.72328
349.803 3.73212
349.842 3.74032
349.881 3.74953
349.920 3.75993
349.959 3.77175
349.998 3.78525
350.037 3.80080
350.076 3.81884
350.115 3.83990
350.154 3.86478
350.193 3.89434
350.232 3.92970
350.251 3.94997
350.270 3.97212
350.290 3.99659
350.309 4.02352
350.329 4.05317
350.348 4.08584
350.368 4.12185
350.387 4.16156
350.407 4.20533
350.426 4.25333
350.450 4.31921
350.474 4.39303
350.498 4.47600
350.522 4.56914
350.534 4.62030
350.546 4.67399
350.557 4.73078
350.569 4.79083
350.581 4.85427
350.593 4.92128
350.605 4.99201
350.617 5.06661
350.629 5.14594
350.641 5.22884
350.653 5.31613
350.665 5.40796
350.677 5.50452
350.688 5.60597
350.700 5.71247
350.712 5.82420
350.724 5.94233
350.736 6.06505
350.748 6.19349
350.760 6.32779
350.772 6.46810
350.784 6.61458
350.808 6.92652
350.831 7.26608
350.855 7.63123
350.879 8.02395
350.903 8.44462
350.927 8.89533
350.951 9.37214
350.974 9.87637
350.998 10.4072
351.019 10.8872
351.039 11.3852
351.080 12.4274
351.122 13.5260
351.163 14.6594
351.258 17.3136
351.306 18.5856
351.353 19.7639
351.386 20.4916
351.418 21.1438
351.442 21.5667
351.466 21.9372
351.490 22.2559
351.514 22.5154
351.541 22.7369
351.568 22.8767
351.600 22.9352
351.604 22.9340
351.617 22.9172
351.631 22.8804
351.657 22.7484
351.679 22.5734
351.702 22.3434
351.725 22.0604
351.747 21.7271
351.770 21.3464
351.792 20.9218
351.832 20.0946
351.871 19.1683
351.895 18.5449
351.941 17.3370
351.986 16.0846
352.047 14.3599
352.078 13.5112
352.109 12.6865
352.132 12.0989
352.154 11.5289
352.177 10.9785
352.200 10.4494
352.222 9.94310
352.245 9.46056
352.267 9.00257
352.290 8.56961
352.309 8.23221
352.327 7.91357
352.346 7.61173
352.364 7.32648
352.383 7.05754
352.401 6.80456
352.420 6.56711
352.438 6.34473
352.457 6.13688
352.475 5.94302
352.494 5.76256
352.512 5.59489
352.531 5.43938
352.549 5.29541
352.568 5.16235
352.586 5.03956
352.600 4.95069
352.615 4.86738
352.629 4.78934
352.644 4.71630
352.658 4.64799
352.672 4.58414
352.687 4.52451
352.701 4.46883
352.716 4.41688
352.730 4.36844
352.744 4.32327
352.759 4.28118
352.773 4.24197
352.788 4.20544
352.816 4.13994
352.845 4.08292
352.874 4.03343
352.903 3.99045
352.931 3.95316
352.960 3.92053
352.989 3.89198
353.018 3.86693
353.047 3.84494
353.092 3.81523
353.137 3.79049
353.182 3.76961
353.227 3.75175
353.273 3.73627
353.318 3.72276
353.363 3.71083
353.408 3.70019
353.454 3.69061
353.499 3.68196
353.589 3.66690
353.680 3.65421
353.770 3.64336
353.869 3.63317
353.967 3.62439
354.066 3.61674
354.165 3.61003
354.263 3.60409
354.362 3.59881
354.461 3.59408
354.559 3.58984
354.757 3.58252
354.954 3.57645
355.152 3.57134
355.349 3.56699
355.546 3.56322
355.744 3.55994
355.941 3.55705
356.138 3.55448
356.336 3.55219
356.533 3.55012
356.928 3.54654
357.322 3.54353
357.717 3.54095
358.112 3.53870
358.506 3.53671
359.000 3.53448
359.493 3.53249
359.987 3.53069
360.480 3.52904
360.973 3.52750
361.467 3.52606
362.453 3.52340
363.440 3.52095
364.427 3.51865
365.413 3.51646
366.400 3.51435
367.453 3.51217
368.505 3.51005
370.610 3.50592
372.715 3.50188
374.820 3.49792
376.925 3.49399
379.030 3.49009
381.135 3.48620
383.240 3.48233
385.345 3.47845
387.450 3.47458
389.555 3.47071
391.660 3.46683
393.765 3.46296
395.870 3.45910
397.975 3.45525
400.080 3.45144
402.185 3.44768
403.369 3.44561
404.553 3.44358
405.737 3.44162
406.921 3.43974
408.105 3.43799
409.289 3.43643
409.882 3.43574
410.474 3.43515
411.066 3.43467
411.658 3.43435
412.184 3.43423
412.710 3.43432
413.236 3.43468
413.763 3.43543
414.289 3.43670
414.552 3.43760
414.815 3.43875
415.078 3.44021
415.341 3.44206
415.604 3.44441
415.868 3.44742
416.073 3.45039
416.279 3.45408
416.484 3.45875
416.690 3.46478
416.793 3.46849
416.895 3.47281
416.998 3.47791
417.101 3.48402
417.204 3.49152
417.307 3.50102
417.358 3.50681
417.409 3.51355
417.461 3.52148
417.512 3.53091
417.555 3.54035
417.599 3.55150
417.642 3.56476
417.685 3.58060
417.728 3.59970
417.771 3.62274
417.814 3.65059
417.858 3.68418
417.901 3.72483
417.922 3.74819
417.944 3.77379
417.966 3.80184
417.987 3.83252
418.009 3.86605
418.030 3.90246
418.052 3.94229
418.073 3.98562
418.095 4.03265
418.117 4.08336
418.138 4.13845
418.160 4.19790
418.181 4.26191
418.203 4.33036
418.224 4.40407
418.246 4.48288
418.268 4.56694
418.289 4.65638
418.311 4.75129
418.332 4.85172
418.354 4.95771
418.376 5.06870
418.397 5.18568
418.419 5.30805
418.440 5.43564
418.462 5.56827
418.505 5.84753
418.548 6.14245
418.594 6.46605
418.639 6.79776
418.729 7.46243
418.787 7.86532
418.816 8.05459
418.844 8.23246
418.887 8.47567
418.931 8.68391
418.953 8.77704
418.976 8.85837
418.998 8.92731
419.021 8.98311
419.051 9.03717
419.081 9.06670
419.100 9.07251
419.119 9.06869
419.149 9.04225
419.179 8.99118
419.203 8.93399
419.227 8.86245
419.251 8.77681
419.275 8.67855
419.321 8.45824
419.366 8.20063
419.397 8.01122
419.427 7.81155
419.488 7.38924
419.584 6.70204
419.631 6.36559
419.679 6.04329
419.702 5.89556
419.725 5.75349
419.748 5.61684
419.771 5.48600
419.793 5.36072
419.816 5.24235
419.839 5.13051
419.862 5.02534
419.885 4.92652
419.908 4.83494
419.930 4.75018
419.953 4.67220
419.976 4.60097
419.999 4.53641
420.022 4.47844
420.044 4.42697
420.062 4.39200
420.079 4.36072
420.097 4.33309
420.114 4.30907
420.138 4.28189
420.162 4.26139
420.186 4.24751
420.210 4.24024
420.233 4.23957
420.257 4.24553
420.281 4.25821
420.305 4.27769
420.329 4.30412
420.353 4.33767
420.377 4.37853
420.401 4.42695
420.425 4.48317
420.449 4.54749
420.472 4.62021
420.496 4.70165
420.517 4.77948
420.538 4.86389
420.558 4.95589
420.579 5.05481
420.600 5.16180
420.620 5.27599
420.641 5.39867
420.662 5.52877
420.682 5.66767
420.703 5.81410
420.724 5.96951
420.744 6.13239
420.765 6.30426
420.785 6.48336
420.806 6.67034
420.827 6.86496
420.851 7.09997
420.874 7.34434
420.922 7.85831
420.970 8.39994
421.018 8.96027
421.083 9.73491
421.148 10.4919
421.196 11.0161
421.244 11.4959
421.292 11.9183
421.316 12.1039
421.339 12.2697
421.363 12.4163
421.387 12.5407
421.428 12.6999
421.469 12.7892
421.500 12.8088
421.525 12.7939
421.562 12.7208
421.600 12.5885
421.625 12.4692
421.649 12.3268
421.688 12.0627
421.726 11.7506
421.775 11.2856
421.825 10.7656
421.874 10.2051
421.923 9.62226
422.022 8.44502
422.072 7.87787
422.121 7.33868
422.155 6.99093
422.189 6.66165
422.222 6.35217
422.256 6.06336
422.273 5.92646
422.290 5.79566
422.307 5.66939
422.323 5.54913
422.340 5.43340
422.357 5.32351
422.374 5.21868
422.391 5.11881
422.418 4.96844
422.445 4.83062
422.472 4.70378
422.498 4.58825
422.525 4.48255
422.552 4.38681
422.579 4.29967
422.606 4.22113
422.633 4.14995
422.660 4.08604
422.687 4.02833
422.714 3.97666
422.741 3.93011
422.768 3.88852
422.795 3.85110
422.822 3.81769
422.847 3.78996
422.871 3.76497
422.896 3.74235
422.921 3.72185
422.970 3.68637
423.020 3.65702
423.069 3.63256
423.118 3.61201
423.168 3.59459
423.217 3.57966
423.267 3.56673
423.316 3.55547
423.365 3.54554
423.415 3.53672
423.514 3.52170
423.612 3.50935
423.720 3.49813
423.828 3.48870
423.936 3.48066
424.044 3.47373
424.152 3.46769
424.259 3.46238
424.367 3.45769
424.475 3.45351
424.691 3.44640
424.906 3.44059
425.122 3.43575
425.338 3.43165
425.571 3.42787
425.805 3.42463
426.038 3.42182
426.272 3.41935
426.506 3.41717
426.739 3.41523
427.206 3.41190
427.674 3.40917
428.141 3.40687
428.608 3.40490
429.075 3.40321
429.650 3.40143
430.225 3.39997
430.800 3.39880
431.375 3.39792
431.950 3.39736
432.525 3.39717
433.100 3.39742
433.388 3.39776
433.675 3.39828
433.963 3.39900
434.250 3.39997
434.538 3.40124
434.825 3.40286
435.095 3.40478
435.365 3.40719
435.634 3.41020
435.904 3.41397
436.173 3.41874
436.308 3.42160
436.443 3.42485
436.578 3.42854
436.712 3.43276
436.847 3.43761
436.982 3.44320
437.126 3.45017
437.269 3.45840
437.413 3.46822
437.557 3.48008
437.629 3.48696
437.701 3.49460
437.773 3.50313
437.844 3.51268
437.916 3.52348
437.988 3.53576
438.060 3.54986
438.132 3.56619
438.175 3.57721
438.217 3.58940
438.260 3.60296
438.303 3.61811
438.345 3.63522
438.388 3.65464
438.431 3.67683
438.473 3.70232
438.516 3.73192
438.559 3.76643
438.601 3.80692
438.644 3.85451
438.665 3.88159
438.687 3.91092
438.708 3.94303
438.729 3.97785
438.751 4.01599
438.772 4.05737
438.793 4.10247
438.815 4.15163
438.839 4.21445
438.864 4.28353
438.889 4.35974
438.914 4.44374
438.938 4.53621
438.963 4.63787
438.988 4.74946
439.012 4.87176
439.037 5.00554
439.062 5.15159
439.086 5.31070
439.111 5.48364
