Xe-134(n,tot) ENDFB-8.0
Energy(eV) XS(b)
1.00000E-05 4524.38
1.03125E-05 4455.31
1.06250E-05 4389.30
1.09375E-05 4326.15
1.12500E-05 4265.64
1.15625E-05 4207.61
1.18750E-05 4151.88
1.21875E-05 4098.30
1.25000E-05 4046.75
1.28125E-05 3997.10
1.31250E-05 3949.23
1.34375E-05 3903.04
1.37500E-05 3858.44
1.43750E-05 3773.63
1.50000E-05 3694.19
1.56250E-05 3619.55
1.62500E-05 3549.27
1.68750E-05 3482.93
1.75000E-05 3420.17
1.81250E-05 3360.69
1.87500E-05 3304.21
1.93750E-05 3250.48
2.00000E-05 3199.29
2.09375E-05 3126.85
2.18750E-05 3059.12
2.28125E-05 2995.61
2.37500E-05 2935.90
2.46875E-05 2879.62
2.56250E-05 2826.46
2.65625E-05 2776.14
2.75000E-05 2728.41
2.84375E-05 2683.07
2.93750E-05 2639.91
3.03125E-05 2598.77
3.12500E-05 2559.50
3.21875E-05 2521.96
3.31250E-05 2486.02
3.40625E-05 2451.57
3.50000E-05 2418.52
3.59375E-05 2386.77
3.68750E-05 2356.24
3.78125E-05 2326.85
3.87500E-05 2298.54
3.96875E-05 2271.23
4.06250E-05 2244.88
4.25000E-05 2194.81
4.43750E-05 2147.95
4.62500E-05 2103.97
4.81250E-05 2062.58
5.00000E-05 2023.55
5.15625E-05 1992.66
5.31250E-05 1963.14
5.46875E-05 1934.90
5.62500E-05 1907.84
5.78125E-05 1881.89
5.93750E-05 1856.97
6.09375E-05 1833.01
6.25000E-05 1809.96
6.40625E-05 1787.76
6.56250E-05 1766.35
6.71875E-05 1745.70
6.87500E-05 1725.76
7.18750E-05 1687.83
7.50000E-05 1652.31
7.81250E-05 1618.93
8.12500E-05 1587.51
8.43750E-05 1557.84
8.75000E-05 1529.78
9.06250E-05 1503.18
9.37500E-05 1477.93
9.68750E-05 1453.90
0.000100000 1431.02
0.000103125 1409.18
0.000106250 1388.31
0.000109375 1368.34
0.000112500 1349.21
0.000115625 1330.86
0.000118750 1313.24
0.000121875 1296.30
0.000125000 1280.00
0.000128125 1264.31
0.000131250 1249.17
0.000134375 1234.57
0.000137500 1220.47
0.000143750 1193.66
0.000150000 1168.54
0.000156250 1144.94
0.000162500 1122.72
0.000168750 1101.75
0.000175000 1081.91
0.000181250 1063.11
0.000187500 1045.25
0.000193750 1028.26
0.000200000 1012.08
0.000209375 989.182
0.000218750 967.770
0.000228125 947.693
0.000237500 928.816
0.000246875 911.026
0.000256250 894.221
0.000265625 878.314
0.000275000 863.228
0.000284375 848.894
0.000293750 835.252
0.000303125 822.248
0.000312500 809.834
0.000321875 797.966
0.000331250 786.606
0.000340625 775.718
0.000350000 765.271
0.000359375 755.236
0.000368750 745.585
0.000378125 736.296
0.000387500 727.347
0.000396875 718.716
0.000406250 710.386
0.000425000 694.560
0.000443750 679.749
0.000462500 665.848
0.000481250 652.768
0.000500000 640.431
0.000515625 630.668
0.000531250 621.339
0.000546875 612.414
0.000562500 603.862
0.000578125 595.660
0.000593750 587.784
0.000609375 580.213
0.000625000 572.928
0.000640625 565.911
0.000656250 559.146
0.000671875 552.619
0.000687500 546.315
0.000718750 534.331
0.000750000 523.104
0.000781250 512.557
0.000812500 502.625
0.000843750 493.250
0.000875000 484.382
0.000906250 475.977
0.000937500 467.996
0.000968750 460.404
0.00100000 453.172
0.00103125 446.270
0.00106250 439.675
0.00109375 433.365
0.00112500 427.320
0.00115625 421.522
0.00118750 415.954
0.00121875 410.602
0.00125000 405.452
0.00128125 400.491
0.00131250 395.709
0.00134375 391.095
0.00137500 386.638
0.00143750 378.166
0.00150000 370.229
0.00156250 362.773
0.00162500 355.752
0.00168750 349.124
0.00175000 342.855
0.00181250 336.913
0.00187500 331.271
0.00193750 325.904
0.00200000 320.790
0.00209375 313.554
0.00218750 306.788
0.00228125 300.444
0.00237500 294.479
0.00246875 288.857
0.00256250 283.547
0.00265625 278.520
0.00275000 273.753
0.00284375 269.224
0.00293750 264.913
0.00303125 260.804
0.00312500 256.881
0.00321875 253.131
0.00331250 249.542
0.00340625 246.101
0.00350000 242.800
0.00359375 239.629
0.00368750 236.580
0.00378125 233.645
0.00387500 230.817
0.00396875 228.090
0.00406250 225.458
0.00425000 220.457
0.00443750 215.777
0.00462500 211.385
0.00481250 207.252
0.00500000 203.354
0.00515625 200.270
0.00531250 197.322
0.00546875 194.502
0.00562500 191.800
0.00578125 189.209
0.00593750 186.721
0.00609375 184.329
0.00625000 182.027
0.00640625 179.810
0.00656250 177.673
0.00671875 175.611
0.00687500 173.619
0.00718750 169.833
0.00750000 166.286
0.00781250 162.954
0.00812500 159.816
0.00843750 156.854
0.00875000 154.052
0.00906250 151.397
0.00937500 148.875
0.00968750 146.477
0.0100000 144.192
0.0103125 142.012
0.0106250 139.928
0.0109375 137.935
0.0112500 136.026
0.0115625 134.194
0.0118750 132.436
0.0121875 130.745
0.0125000 129.119
0.0128125 127.552
0.0131250 126.042
0.0134375 124.585
0.0137500 123.178
0.0143750 120.502
0.0150000 117.996
0.0156250 115.642
0.0162500 113.425
0.0168750 111.332
0.0175000 109.352
0.0181250 107.475
0.0187500 105.694
0.0193750 103.999
0.0200000 102.384
0.0206625 100.754
0.0213250 99.1996
0.0219875 97.7164
0.0226500 96.2989
0.0233125 94.9424
0.0239750 93.6426
0.0246375 92.3957
0.0253000 91.1981
0.0264578 89.2145
0.0276156 87.3573
0.0287734 85.6137
0.0299313 83.9725
0.0310891 82.4242
0.0322469 80.9603
0.0334047 79.5734
0.0345625 78.2567
0.0355274 77.2090
0.0364922 76.2031
0.0374570 75.2363
0.0384219 74.3061
0.0393867 73.4102
0.0403516 72.5467
0.0413164 71.7137
0.0422813 70.9094
0.0442109 69.3807
0.0461406 67.9491
0.0480703 66.6049
0.0500000 65.3395
0.0515625 64.3675
0.0531250 63.4389
0.0546875 62.5505
0.0562500 61.6995
0.0578125 60.8833
0.0593750 60.0998
0.0609375 59.3467
0.0625000 58.6223
0.0640625 57.9247
0.0656250 57.2524
0.0671875 56.6039
0.0687500 55.9777
0.0718750 54.7872
0.0750000 53.6719
0.0781250 52.6240
0.0812500 51.6372
0.0843750 50.7060
0.0875000 49.8253
0.0906250 48.9908
0.0937500 48.1986
0.0968750 47.4453
0.100000 46.7277
0.103125 46.0432
0.106250 45.3894
0.109375 44.7639
0.112500 44.1648
0.115625 43.5904
0.118750 43.0390
0.121875 42.5092
0.125000 41.9998
0.128125 41.5094
0.131250 41.0368
0.137500 40.1406
0.143750 39.3033
0.150000 38.5189
0.156250 37.7824
0.162500 37.0891
0.168750 36.4351
0.175000 35.8168
0.181250 35.2312
0.187500 34.6755
0.193750 34.1474
0.200000 33.6449
0.209375 32.9340
0.218750 32.2693
0.228125 31.6463
0.237500 31.0611
0.246875 30.5101
0.256250 29.9900
0.265625 29.4982
0.275000 29.0321
0.284375 28.5897
0.293750 28.1691
0.303125 27.7684
0.312500 27.3863
0.321875 27.0214
0.331250 26.6724
0.340625 26.3382
0.350000 26.0179
0.364063 25.5613
0.378125 25.1311
0.392188 24.7251
0.406250 24.3415
0.425000 23.8606
0.443750 23.4107
0.462500 22.9892
0.500000 22.2224
0.531250 21.6489
0.562500 21.1246
0.625000 20.2021
0.687500 19.4153
0.750000 18.7354
0.796875 18.2828
0.843750 17.8717
0.875000 17.6193
0.937500 17.1554
1.00000 16.7394
1.06250 16.3654
1.12500 16.0278
1.25000 15.4434
1.37500 14.9575
1.50000 14.5499
1.62500 14.2062
1.75000 13.9166
1.87500 13.6719
2.00000 13.4654
2.11617 13.3048
2.23234 13.1704
2.34850 13.0593
2.46467 12.9697
2.58084 12.9012
2.69700 12.8542
2.81317 12.8305
2.92934 12.8364
2.99700 12.8729
3.03084 12.9131
3.06467 12.9865
3.09850 13.1202
3.13234 13.3402
3.16617 13.5993
3.18308 13.6916
3.20000 13.7277
3.21714 13.6978
3.23427 13.6113
3.26854 13.3662
3.30282 13.1625
3.33709 13.0455
3.37136 12.9882
3.40563 12.9625
3.47418 12.9542
3.58316 12.9894
3.73302 13.0787
3.88288 13.1985
4.03274 13.3438
4.18259 13.5134
4.33245 13.7069
4.48231 13.9248
4.63217 14.1676
4.78203 14.4361
4.89101 14.6480
5.00000 14.8751
5.15625 15.2268
5.31250 15.6105
5.46875 16.0286
5.62500 16.4831
5.78125 16.9763
5.93750 17.5109
6.09375 18.0896
6.25000 18.7158
6.40625 19.3929
6.56250 20.1251
6.71875 20.9166
6.87500 21.7726
7.03125 22.6984
7.18750 23.7003
7.34375 24.7851
7.50000 25.9606
7.65625 27.2356
7.81250 28.6197
7.96875 30.1241
8.12500 31.7612
8.28125 33.5452
8.43750 35.4866
8.51563 36.5218
8.59375 37.6087
8.67188 38.7466
8.75000 39.9380
8.85742 41.6692
8.96484 43.5161
9.07227 45.4884
9.17969 47.5970
9.28711 49.8538
9.39453 52.2721
9.50195 54.8667
9.60938 57.6539
9.70703 60.3705
9.80469 63.2771
9.90234 66.3905
10.0000 69.7287
10.0915 73.0802
10.1830 76.6693
10.2745 80.5173
10.3659 84.6483
10.4574 89.0896
10.5489 93.8716
10.6404 99.0289
10.7319 104.600
10.8233 110.630
10.9148 117.167
11.0063 124.268
11.0978 131.999
11.1893 140.433
11.2807 149.655
11.3722 159.765
11.4637 170.877
11.5552 183.125
11.6009 189.721
11.6467 196.662
11.6924 203.971
11.7381 211.673
11.7839 219.798
11.8296 228.375
11.8754 237.439
11.9211 247.025
11.9668 257.175
12.0126 267.932
12.0583 279.345
12.1041 291.467
12.1498 304.356
12.1955 318.079
12.2538 336.862
12.3120 357.262
12.3702 379.461
12.4284 403.682
12.4866 430.218
12.5448 459.365
12.6030 491.458
12.6613 526.889
12.7070 557.382
12.7527 590.485
12.7985 626.507
12.8442 665.796
12.8900 708.756
12.9357 755.852
12.9814 807.625
13.0272 864.708
13.0729 927.844
13.0958 961.949
13.1187 997.909
13.1415 1035.86
13.1644 1075.94
13.1873 1118.33
13.2101 1163.19
13.2330 1210.72
13.2559 1261.13
13.2788 1314.66
13.3016 1371.58
13.3245 1432.15
13.3474 1496.71
13.3702 1565.59
13.3931 1639.19
13.4222 1740.38
13.4513 1850.94
13.4804 1972.05
13.5095 2105.06
13.5386 2251.71
13.5678 2413.85
13.5969 2593.73
13.6114 2691.09
13.6260 2793.90
13.6488 2967.60
13.6717 3157.52
13.6946 3365.78
13.7175 3594.80
13.7403 3847.38
13.7632 4126.80
13.7861 4436.95
13.7975 4605.01
13.8089 4782.38
13.8204 4970.08
13.8318 5168.54
13.8432 5378.97
13.8547 5601.91
13.8661 5838.78
13.8775 6090.27
13.8890 6358.04
13.9004 6642.98
13.9119 6947.07
13.9233 7271.41
13.9347 7618.38
13.9462 7989.37
13.9576 8387.24
13.9690 8813.73
13.9805 9271.88
13.9919 9764.68
14.0044 10346.2
14.0168 10977.2
14.0293 11663.9
14.0418 12411.0
14.0543 13226.2
14.0667 14115.2
14.0792 15086.9
14.0917 16148.1
14.1000 16910.4
14.1114 18035.3
14.1229 19254.3
14.1343 20576.4
14.1457 22006.2
14.1572 23552.4
14.1686 25217.7
14.1800 27007.5
14.1915 28924.2
14.2034 31051.0
14.2152 33311.6
14.2271 35698.8
14.2390 38200.7
14.2628 43473.0
14.2865 48917.6
14.3019 52412.3
14.3174 55756.0
14.3328 58840.7
14.3483 61554.5
14.3560 62740.6
14.3637 63795.8
14.3714 64709.1
14.3791 65470.8
14.3869 66072.7
14.3946 66508.2
14.4023 66772.5
14.4100 66863.0
14.4177 66778.9
14.4254 66521.3
14.4332 66093.3
14.4409 65499.9
14.4486 64747.9
14.4563 63845.9
14.4640 62803.8
14.4718 61634.2
14.4872 58954.2
14.5026 55912.0
14.5181 52616.6
14.5335 49176.5
14.5619 42783.7
14.5761 39677.1
14.5902 36694.7
14.6044 33863.8
14.6186 31209.4
14.6328 28740.9
14.6470 26462.4
14.6543 25361.5
14.6616 24311.2
14.6689 23308.9
14.6762 22353.5
14.6835 21442.2
14.6908 20575.9
14.6981 19751.8
14.7054 18968.2
14.7127 18222.2
14.7200 17514.3
14.7273 16841.5
14.7346 16202.3
14.7492 15016.7
14.7638 13946.2
14.7784 12977.4
14.7930 12100.6
14.8076 11304.7
14.8222 10582.0
14.8368 9923.58
14.8514 9323.37
14.8660 8774.72
14.8806 8272.17
14.8913 7932.52
14.9019 7613.37
14.9125 7312.89
14.9231 7029.70
14.9338 6762.53
14.9444 6510.23
14.9550 6271.72
14.9656 6046.05
14.9869 5629.54
15.0081 5254.81
15.0293 4916.35
15.0506 4609.67
15.0652 4415.16
15.0798 4232.90
15.0944 4061.66
15.1090 3900.80
15.1236 3749.30
15.1382 3606.63
15.1528 3472.05
15.1674 3344.96
15.1820 3224.72
15.1966 3111.02
15.2258 2901.12
15.2550 2712.08
15.2842 2541.29
15.3135 2386.35
15.3427 2245.42
15.3719 2116.86
15.4011 1999.25
15.4303 1891.39
15.4595 1792.24
15.4887 1700.88
15.5179 1616.55
15.5431 1548.78
15.5684 1485.33
15.5936 1425.79
15.6188 1369.88
15.6440 1317.27
15.6693 1267.72
15.6945 1220.97
15.7197 1176.85
15.7449 1135.12
15.7702 1095.66
15.7954 1058.27
15.8206 1022.84
15.8711 957.281
15.9215 898.052
15.9507 866.324
15.9799 836.314
16.0091 807.897
16.0383 780.962
16.0968 731.140
16.1552 686.135
16.2136 645.328
16.2720 608.214
16.3304 574.356
16.3888 543.387
16.4579 510.061
16.5269 479.862
16.5960 452.408
16.6650 427.385
16.7340 404.520
16.8031 383.569
16.8721 364.288
16.9411 346.495
16.9996 332.494
17.0580 319.379
17.1164 307.078
17.1748 295.526
17.2332 284.660
17.2916 274.428
17.3501 264.778
17.4085 255.669
17.4669 247.058
17.5253 238.911
17.5837 231.193
17.6421 223.876
17.7006 216.930
17.7590 210.331
17.8758 198.084
17.9926 186.968
18.1095 176.849
18.2263 167.608
18.3431 159.144
18.4600 151.371
18.5768 144.213
18.6936 137.607
18.8104 131.496
18.9591 124.356
19.1078 117.863
19.2565 111.942
19.4052 106.492
19.5539 101.479
19.7026 96.8602
19.8513 92.5929
20.0000 88.6347
20.1267 85.4930
20.2533 82.5600
20.3800 79.7916
20.5066 77.1775
20.6333 74.7096
20.7599 72.3792
20.8866 70.1748
21.0132 68.0872
21.1398 66.1089
21.2665 64.2309
21.3931 62.4470
21.5198 60.7511
21.6464 59.1362
21.7731 57.5981
22.0264 54.7312
22.1657 53.2637
22.3050 51.8668
22.5836 49.2672
22.8623 46.8994
23.1409 44.7359
23.4195 42.7522
23.6981 40.9287
23.9768 39.2474
24.2554 37.6932
24.5847 36.0027
24.9139 34.4527
25.2432 33.0275
25.5725 31.7132
25.9018 30.4979
26.2311 29.3797
26.5604 28.3306
26.8896 27.3544
27.1683 26.5820
27.4469 25.8508
27.7255 25.1572
28.0041 24.5030
28.2828 23.8822
28.5614 23.2907
28.8400 22.7301
29.1186 22.1970
29.3973 21.6872
29.6759 21.2017
30.2331 20.2957
30.5118 19.8715
30.7904 19.4664
31.3476 18.7035
31.9049 18.0013
32.4621 17.3510
33.0194 16.7475
33.5766 16.1863
34.1339 15.6616
34.6911 15.1708
35.2484 14.7099
35.8056 14.2756
36.1602 14.0122
36.5148 13.7581
36.8695 13.5125
37.2241 13.2749
37.5787 13.0448
37.9333 12.8219
38.2879 12.6056
38.6425 12.3957
38.9718 12.2062
39.3011 12.0217
39.6304 11.8416
39.9597 11.6668
40.2889 11.4968
40.4536 11.4137
40.6182 11.3320
40.7829 11.2516
40.9475 11.1728
41.1121 11.0955
41.2768 11.0200
41.4541 10.9410
41.6314 10.8645
41.8087 10.7910
41.9860 10.7210
42.1633 10.6555
42.2520 10.6246
42.3406 10.5952
42.4293 10.5674
42.5179 10.5415
42.6066 10.5175
42.6952 10.4959
42.8156 10.4709
42.9359 10.4515
43.0562 10.4390
43.1765 10.4348
43.2367 10.4363
43.2968 10.4406
43.3570 10.4480
43.4171 10.4587
43.4773 10.4732
43.5375 10.4919
43.5976 10.5153
43.6578 10.5441
43.7274 10.5850
43.7971 10.6351
43.8667 10.6958
43.9364 10.7688
44.0061 10.8562
44.0757 10.9603
44.1454 11.0840
44.2150 11.2310
44.2783 11.3885
44.3417 11.5728
44.3733 11.6765
44.4050 11.7889
44.4366 11.9107
44.4683 12.0427
44.5000 12.1862
44.5316 12.3420
44.5633 12.5114
44.5950 12.6958
44.6266 12.8970
44.6583 13.1165
44.6899 13.3566
44.7216 13.6195
44.7564 13.9383
44.7913 14.2921
44.8261 14.6858
44.8609 15.1250
44.8957 15.6162
44.9306 16.1675
44.9654 16.7884
45.0002 17.4900
45.0176 17.8756
45.0351 18.2866
45.0525 18.7258
45.0699 19.1951
45.0873 19.6979
45.1047 20.2366
45.1221 20.8150
45.1395 21.4369
45.1570 22.1073
45.1744 22.8304
45.1918 23.6126
45.2092 24.4596
45.2266 25.3799
45.2440 26.3811
45.2614 27.4738
45.2788 28.6697
45.2994 30.2365
45.3200 31.9940
45.3303 32.9549
45.3406 33.9772
45.3509 35.0664
45.3612 36.2289
45.3715 37.4718
45.3818 38.8032
45.3920 40.2321
45.4023 41.7689
45.4126 43.4254
45.4229 45.2148
45.4332 47.1523
45.4435 49.2551
45.4522 51.1787
45.4609 53.2482
45.4696 55.4784
45.4783 57.8832
45.4870 60.4864
45.4957 63.3027
45.5044 66.3613
45.5131 69.6801
45.5219 73.2946
45.5306 77.2316
45.5349 79.3340
45.5393 81.5248
45.5436 83.8136
45.5480 86.2052
45.5523 88.7105
45.5567 91.3234
45.5610 94.0550
45.5654 96.9110
45.5697 99.9044
45.5741 103.028
45.5784 106.294
45.5828 109.710
45.5883 114.296
45.5939 119.142
45.5994 124.271
45.6050 129.700
45.6105 135.444
45.6160 141.520
45.6216 147.945
45.6271 154.737
45.6315 160.351
45.6358 166.199
45.6402 172.315
45.6445 178.681
45.6489 185.336
45.6533 192.256
45.6576 199.467
45.6620 206.977
45.6663 214.813
45.6707 222.948
45.6750 231.429
45.6794 240.223
45.6837 249.381
45.6881 258.867
45.6924 268.710
45.6968 278.917
45.7011 289.519
45.7055 300.474
45.7099 311.838
45.7142 323.565
45.7186 335.711
45.7229 348.226
45.7273 361.141
45.7316 374.456
45.7403 402.329
45.7490 431.817
45.7577 462.904
45.7664 495.520
45.7752 529.687
45.7839 565.297
45.7926 602.256
45.8013 640.405
45.8100 679.693
45.8187 719.871
45.8274 760.848
45.8361 802.327
45.8535 886.113
45.8709 969.173
45.8883 1049.23
45.9058 1123.98
45.9147 1159.36
45.9235 1192.40
45.9324 1222.83
45.9413 1250.38
45.9521 1279.51
45.9628 1303.65
45.9736 1322.46
45.9844 1335.67
45.9922 1341.67
46.0000 1344.57
46.0117 1343.08
46.0235 1334.64
46.0352 1319.40
46.0470 1297.65
46.0587 1269.80
46.0693 1239.77
46.0799 1205.60
46.0905 1167.70
46.1011 1126.58
46.1116 1082.79
46.1222 1036.87
46.1434 940.525
46.1645 841.602
46.1857 743.785
46.1962 696.203
46.2068 650.014
46.2174 605.395
46.2280 562.649
46.2385 521.868
46.2491 483.255
46.2597 446.857
46.2702 412.720
46.2808 380.826
46.2914 351.216
46.3020 323.790
46.3125 298.532
46.3231 275.308
46.3284 264.438
46.3337 254.064
46.3390 244.132
46.3443 234.649
46.3496 225.600
46.3548 216.986
46.3616 206.588
46.3683 196.812
46.3750 187.628
46.3818 179.006
46.3885 170.914
46.3952 163.323
46.4020 156.204
46.4087 149.540
46.4154 143.282
46.4221 137.417
46.4289 131.918
46.4356 126.762
46.4423 121.926
46.4491 117.389
46.4558 113.132
46.4625 109.140
46.4731 103.336
46.4837 98.0718
46.4942 93.2782
46.5048 88.9129
46.5154 84.9213
46.5260 81.2700
46.5365 77.9155
46.5471 74.8321
46.5577 71.9853
46.5683 69.3556
46.5788 66.9158
46.5894 64.6511
46.6000 62.5399
46.6106 60.5713
46.6211 58.7299
46.6317 57.0039
46.6423 55.3814
46.6528 53.8563
46.6634 52.4175
46.6740 51.0605
46.6846 49.7763
46.6951 48.5613
46.7163 46.3153
46.7374 44.2847
46.7586 42.4414
46.7797 40.7612
46.8009 39.2246
46.8201 37.9367
46.8393 36.7421
46.8586 35.6313
46.8778 34.5968
46.8970 33.6303
46.9162 32.7265
46.9355 31.8788
46.9547 31.0833
46.9739 30.3347
46.9931 29.6299
47.0124 28.9647
47.0316 28.3366
47.0508 27.7422
47.0700 27.1795
47.0893 26.6456
47.1085 26.1390
47.1296 25.6106
47.1508 25.1103
47.1719 24.6360
47.1931 24.1859
47.2354 23.3516
47.2777 22.5955
47.3200 21.9073
47.3623 21.2789
47.4046 20.7030
47.4469 20.1737
47.4795 19.7932
47.5122 19.4353
47.5449 19.0981
47.5776 18.7799
47.6103 18.4792
47.6430 18.1947
47.6756 17.9251
47.7083 17.6693
47.7410 17.4261
47.7737 17.1949
47.8391 16.7648
47.9044 16.3730
47.9698 16.0150
48.0121 15.7994
48.0544 15.5951
48.0967 15.4014
48.1390 15.2175
48.1813 15.0426
48.2236 14.8760
48.3082 14.5659
48.3928 14.2829
48.4774 14.0237
48.5619 13.7852
48.6465 13.5651
48.7081 13.4153
48.7696 13.2734
48.8311 13.1389
48.8926 13.0110
48.9542 12.8894
49.0157 12.7735
49.1387 12.5572
49.2618 12.3590
49.3848 12.1766
49.5078 12.0081
49.6309 11.8519
49.7232 11.7419
49.8154 11.6374
49.9077 11.5380
50.0000 11.4433
50.1121 11.3340
50.2243 11.2305
50.3364 11.1324
50.4485 11.0392
50.5606 10.9503
50.6728 10.8653
50.7849 10.7839
50.8970 10.7058
51.1213 10.5590
51.3455 10.4230
51.5698 10.2963
51.7940 10.1778
51.9809 10.0846
52.1677 9.99579
52.3546 9.91107
52.5415 9.83003
52.7284 9.75234
52.9152 9.67773
53.1021 9.60605
53.2890 9.53720
53.6627 9.40578
54.0365 9.28245
54.4102 9.16625
54.7840 9.05629
55.0830 8.97233
55.3820 8.89156
55.6810 8.81366
55.9799 8.73844
56.5779 8.59521
57.1759 8.46033
57.7739 8.33272
58.3719 8.21139
58.9699 8.09611
59.5679 7.98499
60.1161 7.88738
60.6642 7.79280
61.2124 7.70093
61.7606 7.61210
62.3087 7.52561
62.8569 7.44104
63.4050 7.35861
63.9532 7.27772
64.4764 7.20213
64.9997 7.12778
65.5229 7.05451
66.0462 6.98220
66.5694 6.91071
66.8310 6.87524
67.0927 6.83994
67.3543 6.80479
67.6159 6.76979
67.8775 6.73493
68.1392 6.70023
68.4132 6.66405
68.6873 6.62807
68.9614 6.59232
69.2355 6.55687
69.5096 6.52178
69.7836 6.48718
69.9207 6.47011
70.0577 6.45322
70.1948 6.43656
70.3318 6.42016
70.5062 6.39973
70.6806 6.37990
70.8550 6.36080
71.0295 6.34261
71.2039 6.32559
71.3783 6.31001
71.4655 6.30288
71.5527 6.29625
71.6399 6.29018
71.7271 6.28476
71.8642 6.27772
72.0012 6.27284
72.1382 6.27057
72.2068 6.27060
72.2753 6.27150
72.3438 6.27339
72.4123 6.27637
72.4808 6.28055
72.5494 6.28608
72.6179 6.29312
72.6864 6.30183
72.7549 6.31243
72.8234 6.32512
72.9044 6.34319
72.9854 6.36508
73.0664 6.39139
73.1474 6.42286
73.2283 6.46037
73.3093 6.50496
73.3903 6.55787
73.4308 6.58792
73.4713 6.62064
73.5398 6.68283
73.6083 6.75479
73.6768 6.83821
73.7111 6.88482
73.7453 6.93509
73.7796 6.98934
73.8139 7.04792
73.8481 7.11124
73.8824 7.17974
73.9166 7.25391
73.9509 7.33432
73.9852 7.42158
74.0194 7.51639
74.0661 7.65931
74.1129 7.82011
74.1596 8.00159
74.2063 8.20710
74.2530 8.44071
74.2764 8.56956
74.2997 8.70737
74.3231 8.85494
74.3465 9.01316
74.3698 9.18302
