Cs-133(n,g) ENDFB-8.0
Energy(eV) XS(b)
1.00000E-05 1455.04
1.03125E-05 1432.82
1.06250E-05 1411.60
1.09375E-05 1391.28
1.12500E-05 1371.83
1.15625E-05 1353.16
1.18750E-05 1335.24
1.21875E-05 1318.01
1.25000E-05 1301.43
1.28125E-05 1285.46
1.31250E-05 1270.06
1.34375E-05 1255.21
1.37500E-05 1240.86
1.43750E-05 1213.59
1.50000E-05 1188.04
1.56250E-05 1164.03
1.62500E-05 1141.43
1.68750E-05 1120.09
1.75000E-05 1099.91
1.81250E-05 1080.78
1.87500E-05 1062.61
1.93750E-05 1045.33
2.00000E-05 1028.87
2.09375E-05 1005.57
2.18750E-05 983.788
2.28125E-05 963.362
2.37500E-05 944.157
2.46875E-05 926.056
2.56250E-05 908.958
2.65625E-05 892.774
2.75000E-05 877.425
2.84375E-05 862.840
2.93750E-05 848.960
3.03125E-05 835.729
3.12500E-05 823.098
3.21875E-05 811.022
3.31250E-05 799.463
3.40625E-05 788.385
3.50000E-05 777.755
3.59375E-05 767.543
3.68750E-05 757.723
3.78125E-05 748.271
3.87500E-05 739.164
3.96875E-05 730.382
4.06250E-05 721.905
4.25000E-05 705.802
4.43750E-05 690.730
4.62500E-05 676.584
4.81250E-05 663.273
5.00000E-05 650.718
5.15625E-05 640.783
5.31250E-05 631.289
5.46875E-05 622.206
5.62500E-05 613.503
5.78125E-05 605.156
5.93750E-05 597.140
6.09375E-05 589.435
6.25000E-05 582.021
6.40625E-05 574.879
6.56250E-05 567.994
6.71875E-05 561.351
6.87500E-05 554.936
7.18750E-05 542.738
7.50000E-05 531.311
7.81250E-05 520.577
8.12500E-05 510.468
8.43750E-05 500.925
8.75000E-05 491.899
9.06250E-05 483.344
9.37500E-05 475.220
9.68750E-05 467.493
0.000100000 460.131
0.000103125 453.105
0.000106250 446.393
0.000109375 439.970
0.000112500 433.816
0.000115625 427.914
0.000118750 422.246
0.000121875 416.798
0.000125000 411.555
0.000128125 406.505
0.000131250 401.637
0.000134375 396.939
0.000137500 392.403
0.000143750 383.778
0.000150000 375.698
0.000156250 368.108
0.000162500 360.960
0.000168750 354.213
0.000175000 347.830
0.000181250 341.781
0.000187500 336.037
0.000193750 330.572
0.000200000 325.367
0.000209375 317.999
0.000218750 311.111
0.000228125 304.652
0.000237500 298.579
0.000246875 292.855
0.000256250 287.448
0.000265625 282.331
0.000275000 277.477
0.000284375 272.865
0.000293750 268.476
0.000303125 264.292
0.000312500 260.298
0.000321875 256.480
0.000331250 252.824
0.000340625 249.321
0.000350000 245.960
0.000359375 242.731
0.000368750 239.626
0.000378125 236.637
0.000387500 233.757
0.000396875 230.980
0.000406250 228.300
0.000425000 223.208
0.000443750 218.442
0.000462500 213.969
0.000481250 209.760
0.000500000 205.790
0.000515625 202.648
0.000531250 199.647
0.000546875 196.774
0.000562500 194.023
0.000578125 191.383
0.000593750 188.849
0.000609375 186.412
0.000625000 184.068
0.000640625 181.810
0.000656250 179.633
0.000671875 177.532
0.000687500 175.504
0.000718750 171.647
0.000750000 168.034
0.000781250 164.640
0.000812500 161.443
0.000843750 158.426
0.000875000 155.572
0.000906250 152.867
0.000937500 150.299
0.000968750 147.855
0.00100000 145.528
0.00103125 143.306
0.00106250 141.184
0.00109375 139.153
0.00112500 137.208
0.00115625 135.342
0.00118750 133.550
0.00121875 131.827
0.00125000 130.169
0.00128125 128.573
0.00131250 127.034
0.00134375 125.549
0.00137500 124.114
0.00143750 121.387
0.00150000 118.833
0.00156250 116.433
0.00162500 114.173
0.00168750 112.040
0.00175000 110.022
0.00181250 108.110
0.00187500 106.294
0.00193750 104.566
0.00200000 102.921
0.00209375 100.592
0.00218750 98.4138
0.00228125 96.3718
0.00237500 94.4520
0.00246875 92.6426
0.00256250 90.9335
0.00265625 89.3157
0.00275000 87.7813
0.00284375 86.3235
0.00293750 84.9361
0.00303125 83.6136
0.00312500 82.3510
0.00321875 81.1441
0.00331250 79.9888
0.00340625 78.8815
0.00350000 77.8190
0.00359375 76.7985
0.00368750 75.8171
0.00378125 74.8724
0.00387500 73.9623
0.00396875 73.0846
0.00406250 72.2375
0.00425000 70.6281
0.00443750 69.1220
0.00462500 67.7084
0.00481250 66.3783
0.00500000 65.1238
0.00515625 64.1311
0.00531250 63.1826
0.00546875 62.2751
0.00562500 61.4056
0.00578125 60.5717
0.00593750 59.7709
0.00609375 59.0012
0.00625000 58.2605
0.00640625 57.5471
0.00656250 56.8594
0.00671875 56.1958
0.00687500 55.5549
0.00718750 54.3366
0.00750000 53.1953
0.00781250 52.1232
0.00812500 51.1135
0.00843750 50.1606
0.00875000 49.2591
0.00906250 48.4048
0.00937500 47.5935
0.00968750 46.8219
0.0100000 46.0868
0.0103125 45.3854
0.0106250 44.7152
0.0109375 44.0740
0.0112500 43.4598
0.0115625 42.8706
0.0118750 42.3050
0.0121875 41.7613
0.0125000 41.2381
0.0128125 40.7343
0.0131250 40.2485
0.0134375 39.7799
0.0137500 39.3273
0.0143750 38.4669
0.0150000 37.6610
0.0156250 36.9039
0.0162500 36.1909
0.0168750 35.5180
0.0175000 34.8814
0.0181250 34.2782
0.0187500 33.7054
0.0193750 33.1606
0.0200000 32.6416
0.0206625 32.1174
0.0213250 31.6179
0.0219875 31.1413
0.0226500 30.6857
0.0233125 30.2498
0.0239750 29.8321
0.0246375 29.4315
0.0253000 29.0467
0.0264578 28.4094
0.0276156 27.8128
0.0287734 27.2528
0.0299313 26.7257
0.0310891 26.2285
0.0322469 25.7584
0.0334047 25.3131
0.0345625 24.8904
0.0355274 24.5541
0.0364922 24.2313
0.0374570 23.9210
0.0384219 23.6224
0.0393867 23.3350
0.0403516 23.0579
0.0413164 22.7907
0.0422813 22.5327
0.0442109 22.0423
0.0461406 21.5832
0.0480703 21.1523
0.0500000 20.7466
0.0515625 20.4351
0.0531250 20.1375
0.0546875 19.8529
0.0562500 19.5803
0.0578125 19.3189
0.0593750 19.0680
0.0609375 18.8270
0.0625000 18.5951
0.0640625 18.3719
0.0656250 18.1568
0.0687500 17.7489
0.0718750 17.3680
0.0750000 17.0112
0.0781250 16.6762
0.0812500 16.3608
0.0843750 16.0633
0.0875000 15.7821
0.0906250 15.5157
0.0937500 15.2630
0.0968750 15.0227
0.100000 14.7939
0.103125 14.5757
0.106250 14.3673
0.109375 14.1681
0.112500 13.9774
0.115625 13.7945
0.118750 13.6191
0.121875 13.4506
0.125000 13.2887
0.128125 13.1328
0.131250 12.9827
0.137500 12.6982
0.143750 12.4326
0.150000 12.1840
0.156250 11.9508
0.162500 11.7314
0.168750 11.5247
0.175000 11.3294
0.181250 11.1446
0.187500 10.9694
0.193750 10.8030
0.200000 10.6449
0.209375 10.4214
0.218750 10.2128
0.228125 10.0176
0.237500 9.83442
0.246875 9.66225
0.256250 9.50003
0.265625 9.34686
0.275000 9.20196
0.284375 9.06466
0.293750 8.93433
0.303125 8.81042
0.312500 8.69247
0.321875 8.58002
0.331250 8.47268
0.340625 8.37011
0.350000 8.27198
0.359375 8.17800
0.368750 8.08793
0.378125 8.00159
0.387500 7.91877
0.406250 7.76243
0.425000 7.61724
0.443750 7.48224
0.462500 7.35644
0.500000 7.12943
0.531250 6.96142
0.562500 6.80931
0.625000 6.54605
0.687500 6.32704
0.750000 6.14313
0.812500 5.98770
0.875000 5.85637
0.937500 5.74483
1.00000 5.64978
1.06250 5.56954
1.12500 5.50233
1.25000 5.40161
1.37500 5.33927
1.50000 5.30980
1.62500 5.30964
1.75000 5.33712
1.87500 5.39052
2.00000 5.46864
2.09375 5.54410
2.18750 5.63476
2.28125 5.74093
2.37500 5.86339
2.46875 6.00317
2.56250 6.16150
2.65625 6.33990
2.75000 6.54018
2.84375 6.76448
2.93750 7.01536
3.03125 7.29583
3.12500 7.60945
3.21875 7.96045
3.31250 8.35389
3.40625 8.79579
3.50000 9.29339
3.57617 9.74475
3.65234 10.2435
3.72852 10.7930
3.80469 11.4083
3.88086 12.0957
3.95703 12.8659
4.03320 13.7322
4.07129 14.2063
4.10938 14.7109
4.17969 15.7313
4.21484 16.2896
4.25000 16.8836
4.30274 17.8485
4.35547 18.9125
4.40820 20.0897
4.46094 21.3968
4.51367 22.8536
4.56641 24.4837
4.59277 25.3725
4.61914 26.3157
4.64551 27.3176
4.67188 28.3827
4.70703 29.9099
4.74219 31.5747
4.77734 33.3974
4.81250 35.3987
4.84766 37.6012
4.88281 40.0319
4.91797 42.7237
4.95313 45.7158
4.97656 47.9003
5.00000 50.2548
5.03143 53.7105
5.06285 57.5552
5.07856 59.6421
5.09427 61.8502
5.10999 64.1888
5.12570 66.6686
5.14141 69.3010
5.15712 72.0983
5.17283 75.0747
5.18855 78.2461
5.20426 81.6303
5.21997 85.2477
5.23568 89.1211
5.25139 93.2759
5.26959 98.4756
5.28778 104.140
5.30597 110.327
5.32417 117.100
5.34236 124.539
5.36055 132.732
5.37875 141.787
5.39694 151.829
5.41430 162.472
5.42299 168.229
5.43167 174.306
5.44035 180.726
5.44904 187.516
5.45772 194.705
5.46640 202.325
5.47509 210.412
5.48377 219.004
5.49245 228.145
5.50113 237.884
5.50982 248.273
5.51850 259.374
5.52718 271.254
5.53587 283.988
5.54496 298.337
5.55406 313.826
5.56316 330.583
5.57225 348.747
5.58135 368.487
5.59045 389.986
5.59954 413.466
5.60864 439.173
5.61774 467.407
5.62683 498.502
5.63138 515.250
5.63593 532.867
5.64048 551.417
5.64502 570.968
5.64957 591.595
5.65412 613.371
5.65867 636.384
5.66322 660.730
5.66777 686.516
5.67231 713.845
5.67686 742.842
5.68141 773.643
5.68555 803.335
5.68968 834.756
5.69382 868.037
5.69795 903.306
5.70208 940.732
5.70622 980.469
5.71035 1022.69
5.71449 1067.57
5.71862 1115.33
5.72276 1166.17
5.72689 1220.32
5.73103 1278.00
5.73516 1339.50
5.73930 1405.06
5.74343 1474.95
5.74757 1549.44
5.75212 1637.08
5.75666 1731.02
5.76121 1831.66
5.76576 1939.38
5.77031 2054.56
5.77486 2177.48
5.77940 2308.44
5.78395 2447.70
5.78850 2595.44
5.79305 2751.70
5.79760 2916.50
5.80215 3089.70
5.80669 3271.11
5.81124 3460.25
5.81579 3656.60
5.82034 3859.45
5.82992 4303.67
5.83949 4761.54
5.84907 5218.68
5.85865 5657.86
5.86458 5912.26
5.87050 6147.85
5.87643 6360.06
5.88235 6544.59
5.88828 6697.53
5.89420 6815.56
5.90013 6896.04
5.90605 6937.17
5.91000 6942.22
5.91395 6929.31
5.92037 6870.42
5.92679 6766.13
5.93321 6619.21
5.93963 6433.52
5.94604 6213.68
5.95246 5965.02
5.95888 5693.25
5.96530 5404.27
5.97496 4949.47
5.98462 4487.01
5.99428 4032.70
6.00394 3599.11
6.00864 3398.55
6.01333 3205.82
6.01803 3021.42
6.02272 2845.73
6.02742 2678.97
6.03212 2521.23
6.03681 2372.49
6.04151 2232.61
6.04749 2067.05
6.05346 1914.91
6.05944 1775.46
6.06542 1647.94
6.07139 1531.45
6.07737 1425.16
6.08335 1328.23
6.08932 1239.86
6.09402 1175.88
6.09872 1116.34
6.10341 1060.91
6.10811 1009.25
6.11280 961.087
6.11750 916.137
6.12220 874.148
6.12689 834.890
6.13159 798.139
6.13628 763.714
6.14098 731.428
6.14568 701.115
6.15037 672.624
6.15507 645.817
6.15976 620.568
6.16446 596.761
6.16916 574.287
6.17385 553.057
6.17855 532.980
6.18325 513.975
6.19264 478.886
6.20203 447.270
6.21142 418.682
6.22081 392.754
6.23021 369.163
6.23960 347.637
6.24686 332.267
6.25411 317.897
6.26137 304.438
6.26863 291.817
6.27589 279.964
6.28314 268.819
6.29040 258.325
6.29766 248.434
6.30492 239.098
6.31217 230.278
6.32669 214.037
6.34120 199.450
6.35572 186.298
6.36511 178.466
6.37450 171.117
6.38390 164.210
6.39329 157.711
6.40268 151.588
6.41207 145.813
6.42146 140.361
6.43086 135.208
6.44964 125.713
6.46843 117.181
6.48721 109.484
6.50599 102.517
6.52478 96.1912
6.54356 90.4304
6.56235 85.1694
6.58113 80.3524
6.59992 75.9310
6.61870 71.8639
6.63748 68.1140
6.65627 64.6491
6.67505 61.4404
6.69384 58.4631
6.71262 55.6947
6.73141 53.1165
6.75019 50.7112
6.76897 48.4643
6.78776 46.3622
6.80654 44.3929
6.82533 42.5456
6.84411 40.8106
6.86290 39.1790
6.88168 37.6427
6.90046 36.1944
6.91925 34.8278
6.93803 33.5366
6.95682 32.3156
6.99439 30.0644
7.03195 28.0395
7.06952 26.2116
7.10709 24.5562
7.14466 23.0523
7.18223 21.6821
7.21980 20.4302
7.25737 19.2836
7.28298 18.5563
7.30860 17.8693
7.33421 17.2199
7.35983 16.6054
7.41106 15.4721
7.46229 14.4526
7.51352 13.5306
7.56475 12.6934
7.61598 11.9315
7.66721 11.2367
7.70477 10.7654
7.74234 10.3234
7.77991 9.90843
7.81748 9.51833
7.85505 9.15116
7.89262 8.80516
7.93019 8.47877
7.96776 8.17054
8.04289 7.60344
8.11803 7.09471
8.19317 6.63668
8.26830 6.22291
8.34344 5.84796
8.41858 5.50719
8.49372 5.19666
8.56885 4.91299
8.64399 4.65327
8.71913 4.41504
8.79427 4.19619
8.86940 3.99499
8.92746 3.85074
8.98553 3.71581
9.04359 3.59006
9.10165 3.47387
9.15971 3.36869
9.21777 3.27888
9.24680 3.24376
9.27583 3.22125
9.29034 3.21788
9.30486 3.22261
9.31937 3.23858
9.33389 3.26977
9.34755 3.31721
9.36121 3.38632
9.37487 3.48058
9.38853 3.60193
9.40305 3.75965
9.41756 3.94145
9.44659 4.32723
9.45718 4.45291
9.46777 4.55797
9.47835 4.63495
9.48894 4.67785
9.49447 4.68532
9.50000 4.68209
9.50829 4.65710
9.51659 4.60853
9.52488 4.53796
9.53318 4.44783
9.54329 4.31612
9.55339 4.16665
9.57361 3.84218
9.58464 3.66561
9.59567 3.49799
9.60669 3.34390
9.61772 3.20611
9.62967 3.07643
9.64161 2.96675
9.65356 2.87541
9.66551 2.80002
9.67745 2.73793
9.68940 2.68658
9.70134 2.64367
9.71329 2.60725
9.73718 2.54806
9.76108 2.50048
9.80886 2.42337
9.85665 2.35855
9.90443 2.30048
10.0000 2.19695
10.0724 2.12609
10.1448 2.05993
10.2896 1.93938
10.4345 1.83191
10.5793 1.73531
10.7241 1.64804
10.8689 1.56890
11.0137 1.49691
11.1585 1.43129
11.2968 1.37433
11.4350 1.32172
11.5732 1.27316
11.7115 1.22822
11.8497 1.18686
11.9879 1.14864
12.1262 1.11320
12.2644 1.08050
12.4026 1.05020
12.5409 1.02208
12.8173 0.972062
13.0938 0.929190
13.3703 0.892610
13.6336 0.863029
13.8969 0.838056
14.1602 0.817295
14.4235 0.800494
14.6868 0.787475
14.9501 0.778099
15.2134 0.772305
15.4767 0.770143
15.7663 0.772128
16.0559 0.778969
16.3456 0.791434
16.4904 0.801691
16.5266 0.805881
16.5628 0.811972
16.5990 0.821257
16.6352 0.834849
16.6952 0.864783
16.7252 0.878723
16.7553 0.887884
16.7700 0.889930
16.7893 0.889968
16.8086 0.887241
16.8471 0.876021
16.8630 0.870409
16.8947 0.859809
16.9264 0.851883
16.9661 0.846722
17.0058 0.845847
17.0851 0.850677
17.2438 0.867899
17.4025 0.888970
17.5611 0.913332
17.7198 0.941178
17.8785 0.972882
18.0372 1.00894
18.1958 1.04996
18.3386 1.09179
18.4814 1.13917
18.5528 1.16560
18.6242 1.19567
18.6599 1.21344
18.6956 1.23413
18.7313 1.25815
18.7670 1.28474
18.8135 1.31909
18.8600 1.34651
18.8637 1.34824
18.8784 1.35446
18.8932 1.35964
18.9227 1.36755
18.9558 1.37448
18.9973 1.38411
19.0387 1.39779
19.0802 1.41605
19.1216 1.43791
19.2045 1.48828
19.2874 1.54453
19.3703 1.60603
19.4532 1.67322
19.5361 1.74691
19.6189 1.82869
19.6894 1.90819
19.7246 1.95451
19.7599 2.00878
19.7951 2.07492
19.8303 2.15617
19.8656 2.25202
19.9008 2.35513
19.9330 2.44415
19.9491 2.48277
19.9653 2.51579
19.9819 2.54313
20.0052 2.56988
20.0285 2.58449
20.0666 2.59202
20.0988 2.59551
20.1309 2.60707
20.1630 2.63179
20.1951 2.67019
20.2273 2.72015
20.2594 2.77889
20.3237 2.91454
20.3879 3.06812
20.4522 3.23804
20.5164 3.42537
20.5807 3.63222
20.6331 3.81714
20.6854 4.01861
20.7378 4.23857
20.7901 4.47922
20.8425 4.74318
20.8949 5.03353
20.9472 5.35390
20.9996 5.70858
21.0519 6.10263
21.1043 6.54214
21.1305 6.78116
21.1567 7.03440
21.1828 7.30299
21.2090 7.58823
21.2352 7.89150
21.2614 8.21438
21.2876 8.55858
21.3137 8.92604
21.3399 9.31887
21.3661 9.73948
21.3923 10.1906
21.4185 10.6749
21.4494 11.2955
21.4803 11.9742
21.5113 12.7187
21.5422 13.5381
21.5732 14.4429
21.6041 15.4455
21.6350 16.5608
21.6505 17.1661
21.6660 17.8064
21.6850 18.6468
21.7041 19.5504
21.7231 20.5238
21.7421 21.5744
21.7683 23.1611
21.7814 24.0233
21.7945 24.9363
21.8076 25.9043
21.8207 26.9318
21.8338 28.0240
21.8469 29.1864
21.8599 30.4255
21.8730 31.7483
21.8861 33.1627
21.8992 34.6776
21.9123 36.3031
21.9254 38.0506
21.9385 39.9332
21.9516 41.9656
21.9682 44.7961
21.9849 47.9387
22.0016 51.4433
22.0099 53.3499
22.0182 55.3709
22.0265 57.5161
22.0349 59.7966
22.0432 62.2246
22.0515 64.8139
22.0599 67.5798
22.0682 70.5397
22.0765 73.7131
22.0849 77.1221
22.0914 79.9842
22.0979 83.0161
22.1045 86.2418
22.1110 89.6679
22.1176 93.3230
22.1241 97.2158
22.1307 101.380
22.1372 105.827
22.1438 110.598
22.1503 115.706
22.1569 121.199
22.1634 127.096
22.1699 133.453
22.1765 140.291
22.1830 147.678
22.1896 155.638
22.1943 161.830
22.1991 168.380
22.2039 175.312
22.2086 182.649
22.2134 190.415
22.2181 198.637
22.2229 207.341
22.2277 216.553
22.2324 226.304
22.2372 236.620
22.2419 247.532
22.2467 259.070
22.2515 271.263
22.2562 284.142
22.2610 297.736
22.2657 312.076
22.2723 333.080
22.2788 355.587
22.2854 379.731
22.2919 405.501
22.2985 433.026
22.3050 462.263
22.3116 493.331
22.3181 526.149
22.3246 560.814
22.3312 597.198
22.3377 635.372
22.3443 675.152
22.3508 716.572
22.3574 759.391
22.3639 803.599
22.3705 848.892
22.3830 937.941
22.3954 1028.77
22.4079 1119.57
22.4204 1208.00
22.4355 1308.23
22.4430 1354.46
22.4506 1397.32
22.4625 1457.01
22.4684 1482.73
22.4744 1505.36
22.4803 1524.79
22.4862 1540.81
22.4922 1553.33
22.4981 1562.23
22.5041 1567.44
22.5100 1568.92
22.5140 1567.82
22.5204 1562.50
22.5269 1552.85
22.5333 1538.97
22.5397 1520.98
22.5462 1499.07
22.5526 1473.45
22.5591 1444.35
22.5655 1412.10
22.5756 1355.63
22.5857 1293.20
22.5958 1226.10
22.6059 1155.61
22.6258 1012.16
22.6456 869.371
22.6565 794.337
22.6673 722.605
22.6782 654.730
22.6890 591.328
22.6989 537.282
22.7039 511.790
22.7089 487.376
22.7138 463.939
22.7188 441.524
22.7238 420.119
22.7287 399.748
22.7337 380.310
22.7387 361.825
22.7436 344.267
22.7486 327.640
22.7536 311.848
22.7585 296.924
22.7635 282.775
22.7685 269.425
22.7734 256.786
22.7784 244.852
22.7834 233.591
22.7883 222.988
22.7933 212.970
22.7983 203.543
22.8032 194.638
22.8082 186.262
22.8132 178.351
22.8181 170.894
22.8231 163.864
22.8281 157.249
22.8330 150.996
22.8380 145.108
22.8430 139.539
22.8479 134.290
22.8551 127.151
22.8624 120.580
22.8696 114.505
22.8768 108.897
22.8840 103.698
22.8913 98.8831
22.8985 94.4115
22.9057 90.2515
22.9129 86.3698
22.9202 82.7519
22.9274 79.3650
22.9346 76.1981
22.9418 73.2241
22.9491 70.4346
22.9563 67.8107
22.9635 65.3389
22.9734 62.1630
22.9834 59.2279
22.9933 56.5062
23.0032 53.9767
23.0132 51.6187
23.0231 49.4207
23.0330 47.3659
23.0430 45.4417
23.0529 43.6349
23.0628 41.9393
23.0728 40.3440
23.0827 38.8409
23.0926 37.4216
23.1026 36.0823
23.1224 33.6166
23.1423 31.4006
23.1621 29.4030
23.1820 27.5937
23.2019 25.9508
23.2217 24.4529
23.2416 23.0843
23.2615 21.8293
23.2813 20.6764
23.3003 19.6601
23.3193 18.7187
23.3382 17.8446
23.3572 17.0314
23.3762 16.2730
23.3951 15.5654
23.4141 14.9037
23.4330 14.2840
23.4520 13.7024
23.4710 13.1565
23.4899 12.6431
23.5089 12.1597
23.5279 11.7038
23.5468 11.2736
23.5658 10.8672
23.5847 10.4828
23.6046 10.1018
23.6245 9.74182
23.6642 9.07816
23.7039 8.48137
23.7437 7.94273
23.7834 7.45490
23.8231 7.01167
23.8628 6.60775
23.9026 6.23864
23.9315 5.98978
23.9604 5.75606
23.9893 5.53612
24.0182 5.32905
24.0471 5.13372
24.0759 4.94938
24.1337 4.61016
24.1915 4.30569
24.2493 4.03132
24.3071 3.78324
24.3649 3.55827
24.4046 3.41551
24.4444 3.28162
24.4841 3.15583
24.5238 3.03750
24.5636 2.92606
24.6033 2.82098
24.6430 2.72179
24.6827 2.62805
24.7622 2.45539
24.8417 2.30027
24.9211 2.16039
25.0006 2.03380
25.0512 1.95941
25.1017 1.88937
25.1523 1.82335
25.2029 1.76106
25.3040 1.64658
25.4051 1.54411
25.5063 1.45203
25.6074 1.36879
25.7085 1.29323
25.8096 1.22452
25.8891 1.17483
25.9686 1.12856
26.0480 1.08538
26.1275 1.04505
26.2070 1.00730
26.2864 0.971927
26.3659 0.938732
26.4453 0.907540
26.6043 0.850552
26.7632 0.799872
26.9221 0.754605
27.0810 0.714009
27.1894 0.688686
27.2977 0.665077
27.4061 0.643032
27.5144 0.622418
27.6228 0.603114
27.7312 0.585024
27.9479 0.552231
28.1646 0.523072
28.3813 0.497077
28.5980 0.473875
28.8147 0.453097
29.0748 0.430941
29.3348 0.411447
29.5949 0.394584
29.6599 0.391053
29.7249 0.388437
29.7899 0.387766
29.8549 0.389831
29.9219 0.393369
29.9554 0.394330
29.9889 0.393940
30.0000 0.393448
30.0320 0.390982
30.0640 0.387146
30.1214 0.378327
30.1674 0.371270
30.2133 0.365368
30.2535 0.361338
30.2937 0.358176
30.3742 0.353386
30.5350 0.345909
30.8567 0.333365
31.1783 0.322494
31.5000 0.313097
31.7757 0.306123
32.0514 0.300092
32.3272 0.295011
32.4650 0.293166
32.5340 0.292625
32.6029 0.292801
32.6488 0.293931
32.6718 0.295093
32.6948 0.296862
32.7221 0.300031
32.7494 0.304707
32.7767 0.311237
32.8039 0.319831
32.8312 0.330454
32.8585 0.342688
32.9131 0.368241
32.9389 0.378384
32.9518 0.382425
32.9648 0.385600
32.9824 0.388344
33.0000 0.389103
33.0195 0.387562
33.0390 0.383625
33.0555 0.378591
33.0721 0.372277
33.1052 0.357037
33.1431 0.338158
33.1620 0.329155
33.1809 0.320863
33.1999 0.313462
33.2188 0.307048
33.2377 0.301632
33.2566 0.297161
33.2768 0.293337
33.2969 0.290333
33.3371 0.286199
33.3773 0.283719
33.4175 0.282162
33.4980 0.280285
33.5784 0.279066
33.9002 0.276089
34.2220 0.274341
34.5437 0.273444
34.9601 0.273398
35.3766 0.274565
35.7930 0.276963
36.2094 0.280647
36.6258 0.285692
37.0422 0.292225
37.4586 0.300399
37.8750 0.310413
38.2536 0.321341
38.6321 0.334254
39.0107 0.349457
39.2000 0.358041
39.3892 0.367340
39.5785 0.377443
