Nd-143(n,tot) ENDFB-8.0
Energy(eV) XS(b)
1.00000E-05 16878.0
1.03125E-05 16620.5
1.06250E-05 16374.5
1.09375E-05 16139.1
1.12500E-05 15913.5
1.15625E-05 15697.2
1.18750E-05 15489.5
1.21875E-05 15289.8
1.25000E-05 15097.7
1.28125E-05 14912.6
1.31250E-05 14734.2
1.34375E-05 14562.1
1.37500E-05 14395.8
1.43750E-05 14079.7
1.50000E-05 13783.6
1.56250E-05 13505.5
1.62500E-05 13243.6
1.68750E-05 12996.3
1.75000E-05 12762.5
1.81250E-05 12540.8
1.87500E-05 12330.4
1.93750E-05 12130.2
2.00000E-05 11939.4
2.09375E-05 11669.5
2.18750E-05 11417.2
2.28125E-05 11180.5
2.37500E-05 10958.1
2.46875E-05 10748.4
2.56250E-05 10550.3
2.65625E-05 10362.9
2.75000E-05 10185.1
2.84375E-05 10016.2
2.93750E-05 9855.42
3.03125E-05 9702.18
3.12500E-05 9555.90
3.21875E-05 9416.07
3.31250E-05 9282.21
3.40625E-05 9153.93
3.50000E-05 9030.84
3.59375E-05 8912.61
3.68750E-05 8798.91
3.78125E-05 8689.48
3.87500E-05 8584.04
3.96875E-05 8482.36
4.06250E-05 8384.23
4.25000E-05 8197.81
4.43750E-05 8023.35
4.62500E-05 7859.62
4.81250E-05 7705.56
5.00000E-05 7560.26
5.15585E-05 7445.57
5.31171E-05 7335.98
5.46756E-05 7231.11
5.62341E-05 7130.64
5.64453E-05 7117.34
5.72022E-05 7070.31
5.79590E-05 7024.21
5.94727E-05 6934.65
6.09863E-05 6848.46
6.25000E-05 6765.42
6.40625E-05 6682.81
6.56250E-05 6603.18
6.71875E-05 6526.34
6.87500E-05 6452.14
7.18750E-05 6311.08
7.50000E-05 6178.94
7.81250E-05 6054.83
8.12500E-05 5937.96
8.43750E-05 5827.66
8.75000E-05 5723.32
9.06250E-05 5624.45
9.37500E-05 5530.57
9.68750E-05 5441.27
0.000100000 5356.21
0.000103125 5275.04
0.000106250 5197.50
0.000109375 5123.30
0.000112500 5052.23
0.000115625 4984.07
0.000118750 4918.62
0.000121875 4855.71
0.000125000 4795.17
0.000128125 4736.88
0.000131250 4680.68
0.000134375 4626.45
0.000137500 4574.10
0.000143750 4474.56
0.000150000 4381.33
0.000156250 4293.76
0.000162500 4211.31
0.000168750 4133.50
0.000175000 4059.90
0.000181250 3990.16
0.000187500 3923.94
0.000193750 3860.96
0.000200000 3800.97
0.000209375 3716.08
0.000218750 3636.72
0.000228125 3562.33
0.000237500 3492.39
0.000246875 3426.50
0.000256250 3364.26
0.000265625 3305.36
0.000275000 3249.51
0.000284375 3196.45
0.000293750 3145.96
0.000303125 3097.84
0.000312500 3051.91
0.000321875 3008.00
0.000331250 2965.99
0.000340625 2925.72
0.000350000 2887.09
0.000359375 2849.98
0.000368750 2814.31
0.000378125 2779.97
0.000387500 2746.89
0.000396875 2715.00
0.000406250 2684.22
0.000425000 2625.75
0.000443750 2571.04
0.000462500 2519.71
0.000481250 2471.41
0.000500000 2425.87
0.000515585 2389.93
0.000531171 2355.59
0.000546756 2322.73
0.000562341 2291.25
0.000564453 2287.08
0.000572022 2272.35
0.000579590 2257.90
0.000594727 2229.85
0.000609863 2202.85
0.000625000 2176.84
0.000640625 2150.97
0.000656250 2126.03
0.000671875 2101.97
0.000687500 2078.74
0.000718750 2034.57
0.000750000 1993.21
0.000781250 1954.35
0.000812500 1917.77
0.000843750 1883.25
0.000875000 1850.60
0.000906250 1819.65
0.000937500 1790.27
0.000968750 1762.33
0.00100000 1735.71
0.00103125 1710.32
0.00106250 1686.05
0.00109375 1662.84
0.00112500 1640.60
0.00115625 1619.27
0.00118750 1598.80
0.00121875 1579.11
0.00125000 1560.17
0.00128125 1541.93
0.00131250 1524.35
0.00134375 1507.39
0.00137500 1491.01
0.00143750 1459.86
0.00150000 1430.69
0.00156250 1403.29
0.00162500 1377.49
0.00168750 1353.14
0.00175000 1330.11
0.00181250 1308.28
0.00187500 1287.55
0.00193750 1267.84
0.00200000 1249.06
0.00209375 1222.49
0.00218750 1197.64
0.00228125 1174.35
0.00237500 1152.45
0.00246875 1131.81
0.00256250 1112.31
0.00265625 1093.86
0.00275000 1076.36
0.00284375 1059.74
0.00293750 1043.92
0.00303125 1028.83
0.00312500 1014.44
0.00321875 1000.67
0.00331250 987.500
0.00340625 974.875
0.00350000 962.760
0.00359375 951.123
0.00368750 939.933
0.00378125 929.163
0.00387500 918.785
0.00396875 908.778
0.00406250 899.119
0.00425000 880.770
0.00443750 863.597
0.00462500 847.479
0.00481250 832.313
0.00500000 818.008
0.00515585 806.717
0.00531171 795.926
0.00546756 785.600
0.00562341 775.706
0.00564453 774.397
0.00566406 773.193
0.00573731 768.732
0.00581055 764.356
0.00595703 755.848
0.00610352 747.647
0.00625000 739.737
0.00640625 731.600
0.00656250 723.755
0.00671875 716.185
0.00687500 708.875
0.00718750 694.975
0.00750000 681.952
0.00781250 669.718
0.00812500 658.195
0.00843750 647.317
0.00875000 637.027
0.00906250 627.272
0.00937500 618.009
0.00968750 609.196
0.0100000 600.800
0.0103125 592.787
0.0106250 585.130
0.0109375 577.803
0.0112500 570.783
0.0115625 564.049
0.0118750 557.582
0.0121875 551.365
0.0125000 545.382
0.0128125 539.619
0.0131250 534.063
0.0134375 528.701
0.0137500 523.522
0.0143750 513.673
0.0150000 504.444
0.0156250 495.772
0.0162500 487.602
0.0168750 479.888
0.0175000 472.589
0.0181250 465.670
0.0187500 459.097
0.0193750 452.844
0.0200000 446.884
0.0206625 440.863
0.0213250 435.123
0.0219875 429.643
0.0226500 424.404
0.0233125 419.388
0.0239750 414.580
0.0246375 409.966
0.0253000 405.533
0.0261776 399.920
0.0270552 394.581
0.0279328 389.493
0.0288104 384.638
0.0296880 379.998
0.0305656 375.558
0.0314432 371.303
0.0323208 367.222
0.0333293 362.730
0.0343377 358.436
0.0353462 354.324
0.0363547 350.382
0.0373631 346.598
0.0383716 342.961
0.0393801 339.463
0.0403885 336.095
0.0413970 332.849
0.0424055 329.718
0.0434139 326.695
0.0444224 323.774
0.0464393 318.215
0.0484563 313.001
0.0500000 309.222
0.0515585 305.577
0.0531171 302.090
0.0546756 298.751
0.0562341 295.549
0.0564453 295.125
0.0566406 294.735
0.0573731 293.290
0.0581055 291.872
0.0595703 289.114
0.0610352 286.454
0.0625000 283.886
0.0640625 281.242
0.0656250 278.692
0.0671875 276.229
0.0687500 273.848
0.0718750 269.315
0.0750000 265.059
0.0781250 261.052
0.0812500 257.271
0.0843750 253.694
0.0875000 250.305
0.0906250 247.086
0.0937500 244.024
0.0968750 241.105
0.100000 238.319
0.103125 235.656
0.106250 233.105
0.109375 230.660
0.112500 228.314
0.115625 226.058
0.118750 223.888
0.121875 221.797
0.125000 219.782
0.128125 217.837
0.131250 215.960
0.134375 214.144
0.137500 212.388
0.143750 209.038
0.150000 205.885
0.156250 202.909
0.162500 200.094
0.168750 197.426
0.175000 194.891
0.177828 193.785
0.183371 191.687
0.188914 189.675
0.194457 187.742
0.200000 185.884
0.204688 184.367
0.209375 182.897
0.218750 180.088
0.228125 177.434
0.237500 174.923
0.246875 172.540
0.256250 170.276
0.265625 168.119
0.275000 166.061
0.284375 164.093
0.293750 162.208
0.303125 160.400
0.312500 158.663
0.321875 156.992
0.331250 155.384
0.340625 153.833
0.350000 152.336
0.359375 150.888
0.368750 149.488
0.378125 148.132
0.387500 146.818
0.396875 145.543
0.406250 144.305
0.415625 143.102
0.425000 141.933
0.434375 140.795
0.443750 139.689
0.462500 137.558
0.500000 133.597
0.531171 130.567
0.562341 127.730
0.563477 127.630
0.564453 127.544
0.566406 127.373
0.573731 126.739
0.581055 126.116
0.595703 124.901
0.625000 122.569
0.656250 120.212
0.687500 117.982
0.750000 113.850
0.812500 110.091
0.875000 106.649
0.937500 103.470
0.968750 101.967
1.00000 100.510
1.03125 99.1080
1.06250 97.7466
1.12500 95.1557
1.18750 92.7175
1.25000 90.4153
1.31250 88.2353
1.37500 86.1657
1.43750 84.1964
1.50000 82.3186
1.56250 80.5247
1.62500 78.8081
1.75000 75.5830
1.78125 74.8195
1.81250 74.0741
1.87500 72.6139
2.00000 69.8518
2.09375 67.9041
2.18750 66.0562
2.28125 64.2978
2.37500 62.6220
2.46875 61.0227
2.56250 59.4941
2.65625 58.0315
2.75000 56.6304
2.84375 55.2868
2.93750 54.0004
3.12500 51.5687
3.17188 50.9893
3.21875 50.4262
3.31250 49.3195
3.50000 47.2288
3.68750 45.2805
3.87500 43.4613
4.06250 41.7592
4.25000 40.1632
4.43750 38.6642
4.62500 37.2537
4.81250 35.9244
5.00000 34.6693
5.15585 33.6786
5.31171 32.7330
5.46756 31.8290
5.62341 30.9630
5.62500 30.9544
5.62988 30.9277
5.63477 30.9012
5.64453 30.8482
5.68237 30.6447
5.72022 30.4439
5.79590 30.0496
5.94727 29.2828
6.25000 27.8400
6.56250 26.4656
6.87500 25.1938
7.18750 24.0160
7.50000 22.9227
7.81250 21.9057
8.12500 20.9580
8.43750 20.0732
8.75000 19.2457
9.06250 18.4704
9.37500 17.7431
9.68749 17.0596
9.84374 16.7351
9.92187 16.5746
9.96093 16.4947
9.99999 16.4154
10.0000 16.4154
10.0000 16.4153
10.0001 16.4152
10.0002 16.4151
10.0003 16.4148
10.0006 16.4141
10.0012 16.4129
10.0025 16.4105
10.0049 16.4055
10.0098 16.3957
10.0262 16.3627
10.0427 16.3298
10.0756 16.2647
10.1414 16.1360
10.2730 15.8840
10.5362 15.3989
10.7994 14.9352
11.0625 14.4923
11.3257 14.0693
11.5889 13.6653
11.8521 13.2794
11.9837 13.0929
12.0495 13.0009
12.1153 12.9096
12.1153 12.9096
12.1154 12.9095
12.1154 12.9095
12.1155 12.9093
12.1157 12.9091
12.1161 12.9086
12.1168 12.9075
12.1183 12.9055
12.1213 12.9013
12.1273 12.8930
12.1506 12.8611
12.1739 12.8293
12.2205 12.7662
12.3137 12.6419
12.5000 12.3989
13.0445 11.7284
13.5890 11.1124
14.1335 10.5449
14.4058 10.2778
14.5419 10.1487
14.6099 10.0846
14.6780 10.0209
14.6780 10.0209
14.6781 10.0208
14.6782 10.0208
14.6783 10.0206
14.6786 10.0203
14.6793 10.0197
14.6805 10.0186
14.6831 10.0162
14.6881 10.0116
14.6981 10.0022
14.7359 9.96741
14.7736 9.93289
14.8491 9.86459
15.0000 9.73092
15.3125 9.46559
15.6250 9.20377
16.2500 8.71905
16.8750 8.27294
17.5000 7.86096
17.6414 7.77195
17.7121 7.72805
17.7828 7.68445
17.7828 7.68444
17.7829 7.68440
17.7829 7.68436
17.7831 7.68429
17.7833 7.68414
17.7838 7.68385
17.7847 7.68328
17.7866 7.68212
17.7904 7.67980
17.7979 7.67517
17.8151 7.66464
17.8323 7.65415
17.8668 7.63326
17.9356 7.59184
18.0732 7.51023
18.3485 7.35144
18.8990 7.04870
19.4495 6.76329
20.0000 6.49565
20.7722 6.14788
21.1582 5.98529
21.3513 5.90604
21.4478 5.86649
21.5443 5.82731
21.5443 5.82730
21.5444 5.82728
21.5444 5.82727
21.5445 5.82723
21.5446 5.82717
21.5450 5.82704
21.5456 5.82678
21.5469 5.82626
21.5495 5.82522
21.5547 5.82314
21.5650 5.81900
21.6004 5.80484
21.6359 5.79079
21.7068 5.76296
21.8485 5.70813
22.1321 5.60128
22.6991 5.39518
23.2662 5.20062
23.8333 5.01765
24.4004 4.84532
24.9674 4.68045
25.5345 4.52316
25.8181 4.44770
25.9598 4.41085
26.0307 4.39248
26.1016 4.37423
26.1016 4.37423
26.1017 4.37421
26.1017 4.37420
26.1018 4.37417
26.1021 4.37411
26.1025 4.37399
26.1034 4.37376
26.1052 4.37330
26.1088 4.37238
26.1160 4.37054
26.1304 4.36686
26.1732 4.35596
26.2160 4.34514
26.3016 4.32367
26.4728 4.28136
26.8152 4.19997
27.5000 4.04042
28.5307 3.81920
29.5614 3.61683
30.5921 3.43117
31.1075 3.34354
31.3651 3.30077
31.4940 3.27995
31.6228 3.25930
31.6228 3.25930
31.6229 3.25929
31.6229 3.25928
31.6230 3.25926
31.6232 3.25924
31.6236 3.25918
31.6243 3.25906
31.6258 3.25883
31.6287 3.25836
31.6346 3.25742
31.6463 3.25556
31.6698 3.25183
31.7218 3.24359
31.7738 3.23541
31.8779 3.21917
32.0860 3.18718
32.5023 3.12492
33.3349 3.00629
34.1674 2.89479
35.0000 2.79079
35.8280 2.69449
36.6560 2.60486
37.4839 2.52100
37.8979 2.48177
37.9497 2.47697
37.9755 2.47458
38.0014 2.47219
38.0144 2.47100
38.0273 2.46981
38.0402 2.46863
38.0532 2.46745
38.0661 2.46628
38.0790 2.46512
38.0920 2.46397
38.1049 2.46283
38.1178 2.46170
38.1308 2.46059
38.1437 2.45949
38.1567 2.45842
38.1696 2.45736
38.1825 2.45632
38.2084 2.45430
38.2343 2.45237
38.2602 2.45052
38.3119 2.44697
38.3393 2.44512
38.4043 2.44060
38.4368 2.43820
38.4693 2.43569
38.5343 2.43040
38.5994 2.42488
38.7294 2.41372
38.8594 2.40270
39.3795 2.35987
40.4197 2.28203
40.9397 2.24623
41.4598 2.21356
41.9799 2.18369
42.5000 2.15681
42.9895 2.13444
43.4790 2.11516
43.9685 2.09926
44.4580 2.08713
44.9474 2.07925
45.4369 2.07623
45.6817 2.07674
45.9264 2.07886
46.0488 2.08050
46.1100 2.08136
46.1712 2.08219
46.2323 2.08293
46.2935 2.08349
46.3547 2.08385
46.4159 2.08411
46.4159 2.08411
46.4160 2.08411
46.4160 2.08411
46.4161 2.08411
46.4163 2.08411
46.4168 2.08411
46.4176 2.08412
46.4193 2.08412
46.4226 2.08414
46.4293 2.08417
46.4426 2.08425
46.4693 2.08445
46.4960 2.08472
46.5227 2.08507
46.5461 2.08546
46.5695 2.08592
46.5928 2.08646
46.6162 2.08706
46.6396 2.08772
46.6513 2.08807
46.6629 2.08844
46.6746 2.08881
46.6863 2.08920
46.7097 2.09001
46.7330 2.09085
46.7564 2.09172
46.7798 2.09262
46.8031 2.09354
46.8499 2.09545
46.8966 2.09746
47.0835 2.10637
47.2705 2.11679
47.5824 2.13791
47.8943 2.16432
48.2062 2.19693
48.5181 2.23673
48.6740 2.25974
48.8300 2.28507
48.9859 2.31295
49.1418 2.34361
49.2978 2.37735
49.4537 2.41448
49.6097 2.45528
49.7656 2.50004
49.8828 2.53670
50.0000 2.57634
50.1854 2.64557
50.3708 2.72363
50.5563 2.81191
50.7417 2.91211
50.8344 2.96727
50.9271 3.02617
51.0198 3.08906
51.1125 3.15627
51.2052 3.22825
51.2979 3.30555
51.3907 3.38872
51.4834 3.47826
51.5967 3.59726
51.7100 3.72796
51.8233 3.87188
51.9366 4.03082
52.0499 4.20686
52.1632 4.40249
52.2765 4.62066
52.3898 4.86491
52.4929 5.11319
52.5959 5.39036
52.6474 5.54123
52.6989 5.70109
52.7504 5.87076
52.8019 6.05096
52.8534 6.24264
52.9049 6.44670
52.9564 6.66429
53.0079 6.89651
53.0594 7.14482
53.1109 7.41067
53.1624 7.69593
53.2139 8.00248
53.2706 8.36709
53.3272 8.76352
53.3839 9.19575
53.4405 9.66802
53.4972 10.1856
53.5539 10.7543
53.6105 11.3814
53.6672 12.0749
53.7238 12.8449
53.7805 13.7030
53.8088 14.1695
53.8371 14.6637
53.8655 15.1876
53.8938 15.7437
53.9221 16.3349
53.9504 16.9643
53.9788 17.6351
54.0071 18.3509
54.0354 19.1165
54.0638 19.9362
54.0921 20.8155
54.1204 21.7600
54.1539 22.9706
54.1874 24.2955
54.2208 25.7499
54.2543 27.3519
54.2878 29.1227
54.3213 31.0877
54.3548 33.2773
54.3715 34.4675
54.3882 35.7276
54.4166 38.0388
54.4449 40.6023
54.4732 43.4581
54.4874 45.0099
54.5015 46.6537
54.5157 48.3988
54.5299 50.2513
54.5440 52.2225
54.5582 54.3234
54.5724 56.5682
54.5865 58.9681
54.6007 61.5409
54.6148 64.3053
54.6271 66.8657
54.6393 69.5992
54.6516 72.5283
54.6638 75.6692
54.6760 79.0511
54.6883 82.6961
54.7005 86.6389
54.7127 90.9166
54.7250 95.5764
54.7372 100.661
54.7494 106.233
54.7616 112.359
54.7739 119.127
54.7861 126.616
54.7983 134.940
54.8106 144.223
54.8177 150.099
54.8247 156.368
54.8318 163.070
54.8389 170.242
54.8460 177.922
54.8531 186.154
54.8601 194.982
54.8672 204.454
54.8743 214.637
54.8814 225.558
54.8885 237.287
54.8956 249.888
54.9026 263.424
54.9097 277.965
54.9168 293.583
54.9239 310.351
54.9310 328.375
54.9380 347.683
54.9451 368.383
54.9522 390.560
54.9593 414.333
54.9664 439.723
54.9735 466.849
54.9805 495.797
54.9876 526.699
54.9947 559.550
55.0018 594.473
55.0089 631.544
55.0160 670.891
55.0230 712.468
55.0301 756.387
55.0372 802.696
55.0456 860.578
55.0539 921.896
55.0623 986.671
55.0707 1054.89
55.0790 1126.52
55.0874 1201.48
55.0958 1279.65
55.1041 1360.81
55.1183 1504.82
55.1325 1655.80
55.1466 1812.44
55.1608 1972.66
55.1891 2295.30
55.2033 2452.49
55.2175 2603.25
55.2342 2769.24
55.2509 2917.47
55.2660 3032.14
55.2811 3125.89
55.2925 3181.20
55.3038 3222.38
55.3152 3248.88
55.3265 3260.23
55.3300 3260.65
55.3414 3252.01
55.3527 3228.18
55.3641 3189.55
55.3754 3136.75
55.3847 3083.77
55.3939 3022.49
55.4032 2953.38
55.4124 2877.24
55.4306 2709.02
55.4489 2521.86
55.4671 2322.01
55.4853 2115.41
55.5184 1740.52
55.5350 1560.70
55.5516 1389.86
55.5607 1300.33
55.5698 1214.48
55.5789 1132.39
55.5880 1054.23
55.5971 980.079
55.6062 910.000
55.6154 843.999
55.6245 782.045
55.6344 718.989
55.6443 660.554
55.6543 606.584
55.6642 556.893
55.6742 511.277
55.6841 469.513
55.6940 431.369
55.7040 396.609
55.7131 367.488
55.7222 340.859
55.7313 316.511
55.7404 294.269
55.7496 273.946
55.7587 255.428
55.7678 238.539
55.7769 223.139
55.7860 209.078
55.7951 196.266
55.8042 184.569
55.8133 173.884
55.8224 164.113
55.8316 155.168
55.8407 146.969
55.8498 139.441
55.8589 132.512
55.8680 126.138
55.8771 120.256
55.8862 114.818
55.8953 109.781
55.9044 105.107
55.9136 100.761
55.9227 96.7117
55.9318 92.9276
55.9409 89.3925
55.9500 86.0799
55.9591 82.9703
55.9682 80.0462
55.9773 77.2918
55.9956 72.2376
56.0105 68.4985
56.0254 65.0697
56.0403 61.9149
56.0552 59.0032
56.0701 56.3081
56.0850 53.8071
56.0999 51.4806
56.1148 49.3131
56.1297 47.2867
56.1446 45.3902
56.1596 43.6119
56.1745 41.9419
56.1894 40.3710
56.2043 38.8913
56.2192 37.4956
56.2341 36.1781
56.2341 36.1764
56.2342 36.1713
56.2342 36.1661
56.2344 36.1558
56.2346 36.1352
56.2353 36.0744
56.2360 36.0137
56.2374 35.8928
56.2403 35.6539
56.2459 35.1826
56.2573 34.2689
56.2800 32.5501
56.3026 30.9631
56.3253 29.4952
56.3480 28.1333
56.3707 26.8676
56.3933 25.6893
56.4160 24.5907
56.4369 23.6442
56.4577 22.7542
56.4785 21.9158
56.4994 21.1251
56.5202 20.3781
56.5411 19.6723
56.5828 18.3715
56.6244 17.2016
56.6661 16.1459
56.7078 15.1896
56.7495 14.3206
56.7779 13.7728
56.8063 13.2578
56.8347 12.7731
56.8632 12.3163
56.8916 11.8854
56.9200 11.4783
56.9768 10.7291
57.0337 10.0563
57.0905 9.44971
57.1474 8.90091
57.2042 8.40272
57.2459 8.06595
57.2876 7.75115
57.3293 7.45631
57.3709 7.17992
57.4126 6.92036
57.4543 6.67639
57.4960 6.44674
57.5377 6.23031
57.5794 6.02605
57.6210 5.83315
57.7044 5.47803
57.7878 5.15920
57.8711 4.87191
57.9228 4.70799
57.9744 4.55379
58.0260 4.40852
58.0776 4.27155
58.1809 4.01998
58.2841 3.79471
58.3874 3.59208
58.4906 3.40913
58.5939 3.24342
58.6971 3.09286
58.8169 2.93472
58.9368 2.79217
59.0566 2.66319
59.1764 2.54607
59.2962 2.43939
59.4160 2.34193
59.5358 2.25266
59.6556 2.17074
59.7700 2.09865
59.8844 2.03181
59.9987 1.96962
60.1131 1.91168
60.2275 1.85764
60.3418 1.80714
60.4562 1.75989
60.5706 1.71559
60.6849 1.67400
60.7993 1.63487
60.9137 1.59802
61.0280 1.56325
61.2568 1.49933
61.4855 1.44198
61.6271 1.40935
61.7687 1.37869
61.9103 1.34982
62.0519 1.32260
62.3351 1.27255
62.6183 1.22763
62.9015 1.18710
63.1847 1.15051
63.4679 1.11694
63.7511 1.08613
63.9999 1.06111
64.2486 1.03778
64.4974 1.01595
64.7462 0.995486
64.9950 0.976245
65.2438 0.958105
65.7414 0.924746
66.2390 0.894721
66.7366 0.867530
67.2342 0.842680
67.7318 0.819868
68.1292 0.802893
68.1292 0.802892
68.1293 0.802889
68.1294 0.802886
68.1295 0.802880
68.1298 0.802868
68.1304 0.802843
68.1316 0.802795
68.1339 0.802698
68.1386 0.802504
68.1479 0.802116
68.1667 0.801342
68.2084 0.799627
68.2502 0.797924
68.3337 0.794559
68.5007 0.787975
68.8346 0.775346
69.5026 0.751705
70.1706 0.730032
70.8385 0.710150
71.5065 0.691850
72.1745 0.674964
72.8424 0.659357
73.5104 0.644919
74.4877 0.625757
75.4649 0.609013
76.4422 0.593620
77.4195 0.580390
78.3967 0.568866
79.3740 0.559003
80.3513 0.550735
81.3285 0.544151
81.9345 0.541123
82.0860 0.540403
82.1617 0.540044
82.2374 0.539689
82.2753 0.539513
82.3132 0.539340
82.3510 0.539170
82.3889 0.539003
82.4647 0.538682
82.5404 0.538380
82.5632 0.538293
82.6316 0.538043
82.7169 0.537749
82.8022 0.537471
82.8875 0.537207
82.9728 0.536957
83.3139 0.536095
83.9963 0.534956
84.6787 0.534656
85.3610 0.535230
86.3195 0.537577
87.2780 0.541728
88.2365 0.547804
89.1950 0.555938
90.1535 0.566159
91.1120 0.578692
92.0706 0.593649
93.0291 0.611163
93.9004 0.629556
94.7718 0.650434
95.6432 0.673947
96.5145 0.700357
97.3859 0.729963
98.2573 0.763002
99.1286 0.799745
99.2376 0.804599
99.3465 0.809545
99.4009 0.812058
99.4282 0.813325
99.4554 0.814600
99.4826 0.815885
99.5099 0.817179
99.5371 0.818486
99.5643 0.819808
99.5916 0.821148
99.6188 0.822510
99.6460 0.823899
99.6732 0.825321
99.7005 0.826781
99.7277 0.828285
99.7549 0.829839
99.7822 0.831446
99.8094 0.833110
99.8366 0.834832
99.8911 0.838445
99.9455 0.842249
100.000 0.846169
100.106 0.853795
100.198 0.859935
100.289 0.865538
100.380 0.870718
100.471 0.875671
100.654 0.885447
100.836 0.895409
101.566 0.937345
102.295 0.983105
103.025 1.03313
103.755 1.08780
104.485 1.14710
105.214 1.21271
105.944 1.28483
106.528 1.34776
107.111 1.41582
107.695 1.48958
108.279 1.56966
108.863 1.65678
109.446 1.75178
110.030 1.85567
110.614 1.96954
111.198 2.09481
111.781 2.23303
112.365 2.38617
112.657 2.46904
112.949 2.55651
113.241 2.64899
113.533 2.74688
113.825 2.85063
114.116 2.96067
114.408 3.07765
114.700 3.20213
114.992 3.33485
115.284 3.47650
115.655 3.67124
116.027 3.88404
116.398 4.11692
116.770 4.37199
117.141 4.65475
117.513 4.96840
117.884 5.31754
118.070 5.50714
118.256 5.70787
118.545 6.04536
118.835 6.41608
119.124 6.82502
119.414 7.27747
119.703 7.78043
119.993 8.34152
120.138 8.64694
120.283 8.97066
120.427 9.31422
120.572 9.67918
120.729 10.1022
120.808 10.3249
