Nd-142(n,tot) ENDFB-8.0
Energy(eV) XS(b)
1.00000E-05 981.971
1.03125E-05 966.999
1.06250E-05 952.693
1.09375E-05 939.005
1.12500E-05 925.892
1.15625E-05 913.314
1.18750E-05 901.236
1.21875E-05 889.626
1.25000E-05 878.455
1.28125E-05 867.695
1.31250E-05 857.321
1.34375E-05 847.312
1.37500E-05 837.647
1.43750E-05 819.270
1.50000E-05 802.056
1.56250E-05 785.885
1.62500E-05 770.657
1.68750E-05 756.284
1.75000E-05 742.688
1.81250E-05 729.803
1.87500E-05 717.567
1.93750E-05 705.929
2.00000E-05 694.842
2.09375E-05 679.151
2.18750E-05 664.482
2.28125E-05 650.727
2.37500E-05 637.796
2.46875E-05 625.609
2.56250E-05 614.098
2.65625E-05 603.202
2.75000E-05 592.869
2.84375E-05 583.052
2.93750E-05 573.710
3.03125E-05 564.804
3.12500E-05 556.304
3.21875E-05 548.177
3.31250E-05 540.399
3.40625E-05 532.944
3.50000E-05 525.792
3.59375E-05 518.922
3.68750E-05 512.315
3.78125E-05 505.957
3.87500E-05 499.830
3.96875E-05 493.923
4.06250E-05 488.222
4.25000E-05 477.391
4.43750E-05 467.256
4.62500E-05 457.744
4.81250E-05 448.795
5.00000E-05 440.355
5.15625E-05 433.677
5.31250E-05 427.296
5.46875E-05 421.192
5.62500E-05 415.344
5.78125E-05 409.735
5.93750E-05 404.350
6.09375E-05 399.173
6.25000E-05 394.193
6.40625E-05 389.396
6.56250E-05 384.772
6.71875E-05 380.311
6.87500E-05 376.003
7.18750E-05 367.813
7.50000E-05 360.142
7.81250E-05 352.938
8.12500E-05 346.154
8.43750E-05 339.752
8.75000E-05 333.697
9.06250E-05 327.959
9.37500E-05 322.511
9.68750E-05 317.330
0.000100000 312.395
0.000103125 307.686
0.000106250 303.187
0.000109375 298.883
0.000112500 294.761
0.000115625 290.807
0.000118750 287.011
0.000121875 283.363
0.000125000 279.853
0.000128125 276.472
0.000131250 273.214
0.000134375 270.070
0.000137500 267.034
0.000143750 261.264
0.000150000 255.860
0.000156250 250.785
0.000162500 246.007
0.000168750 241.499
0.000175000 237.235
0.000181250 233.194
0.000187500 229.359
0.000193750 225.711
0.000200000 222.237
0.000209375 217.321
0.000218750 212.727
0.000228125 208.420
0.000237500 204.372
0.000246875 200.559
0.000256250 196.957
0.000265625 193.550
0.000275000 190.319
0.000284375 187.250
0.000293750 184.330
0.000303125 181.547
0.000312500 178.891
0.000321875 176.353
0.000331250 173.924
0.000340625 171.596
0.000350000 169.364
0.000359375 167.219
0.000368750 165.158
0.000378125 163.174
0.000387500 161.263
0.000396875 159.421
0.000406250 157.643
0.000425000 154.266
0.000443750 151.107
0.000462500 148.143
0.000481250 145.355
0.000500000 142.727
0.000515625 140.648
0.000531250 138.661
0.000546875 136.761
0.000562500 134.941
0.000578125 133.196
0.000593750 131.521
0.000609375 129.910
0.000625000 128.361
0.000640625 126.870
0.000656250 125.432
0.000671875 124.045
0.000687500 122.706
0.000718750 120.160
0.000750000 117.776
0.000781250 115.538
0.000812500 113.430
0.000843750 111.442
0.000875000 109.561
0.000906250 107.779
0.000937500 106.087
0.000968750 104.479
0.00100000 102.946
0.00103125 101.485
0.00106250 100.088
0.00109375 98.7522
0.00112500 97.4726
0.00115625 96.2455
0.00118750 95.0674
0.00121875 93.9350
0.00125000 92.8456
0.00128125 91.7965
0.00131250 90.7852
0.00134375 89.8096
0.00137500 88.8675
0.00143750 87.0768
0.00150000 85.3997
0.00156250 83.8246
0.00162500 82.3416
0.00168750 80.9421
0.00175000 79.6186
0.00181250 78.3643
0.00187500 77.1735
0.00193750 76.0410
0.00200000 74.9622
0.00209375 73.4358
0.00218750 72.0090
0.00228125 70.6712
0.00237500 69.4138
0.00246875 68.2289
0.00256250 67.1098
0.00265625 66.0506
0.00275000 65.0463
0.00284375 64.0922
0.00293750 63.1842
0.00303125 62.3189
0.00312500 61.4928
0.00321875 60.7032
0.00331250 59.9475
0.00340625 59.2233
0.00350000 58.5284
0.00359375 57.8610
0.00368750 57.2193
0.00378125 56.6016
0.00387500 56.0065
0.00396875 55.4327
0.00406250 54.8790
0.00425000 53.8270
0.00443750 52.8426
0.00462500 51.9188
0.00481250 51.0496
0.00500000 50.2299
0.00515625 49.5813
0.00531250 48.9616
0.00546875 48.3687
0.00562500 47.8007
0.00578125 47.2560
0.00593750 46.7329
0.00609375 46.2301
0.00625000 45.7464
0.00640625 45.2804
0.00656250 44.8312
0.00671875 44.3978
0.00687500 43.9793
0.00718750 43.1837
0.00750000 42.4383
0.00781250 41.7382
0.00812500 41.0789
0.00843750 40.4566
0.00875000 39.8679
0.00906250 39.3100
0.00937500 38.7803
0.00968750 38.2764
0.0100000 37.7963
0.0103125 37.3383
0.0106250 36.9006
0.0109375 36.4819
0.0112500 36.0807
0.0115625 35.6959
0.0118750 35.3265
0.0121875 34.9714
0.0125000 34.6297
0.0128125 34.3005
0.0131250 33.9833
0.0134375 33.6771
0.0137500 33.3815
0.0143750 32.8193
0.0150000 32.2927
0.0156250 31.7980
0.0162500 31.3320
0.0168750 30.8921
0.0175000 30.4760
0.0181250 30.0816
0.0187500 29.7071
0.0193750 29.3508
0.0200000 29.0113
0.0206625 28.6684
0.0213250 28.3416
0.0219875 28.0297
0.0226500 27.7316
0.0233125 27.4462
0.0239750 27.1728
0.0246375 26.9104
0.0253000 26.6584
0.0264578 26.2410
0.0276156 25.8500
0.0287734 25.4829
0.0299313 25.1373
0.0310891 24.8112
0.0322469 24.5028
0.0334047 24.2106
0.0345625 23.9330
0.0355274 23.7122
0.0364922 23.5001
0.0374570 23.2961
0.0384219 23.0999
0.0393867 22.9109
0.0403516 22.7287
0.0413164 22.5529
0.0422813 22.3830
0.0442109 22.0602
0.0461406 21.7578
0.0480703 21.4736
0.0500000 21.2061
0.0515625 21.0005
0.0531250 20.8039
0.0546875 20.6159
0.0562500 20.4356
0.0578125 20.2628
0.0593750 20.0967
0.0609375 19.9370
0.0625000 19.7834
0.0640625 19.6354
0.0656250 19.4927
0.0671875 19.3550
0.0687500 19.2220
0.0718750 18.9690
0.0750000 18.7318
0.0781250 18.5087
0.0812500 18.2985
0.0843750 18.1000
0.0875000 17.9121
0.0906250 17.7339
0.0937500 17.5646
0.0968750 17.4035
0.100000 17.2499
0.103125 17.1032
0.106250 16.9630
0.109375 16.8288
0.112500 16.7001
0.115625 16.5766
0.118750 16.4579
0.121875 16.3438
0.125000 16.2340
0.128125 16.1281
0.131250 16.0260
0.134375 15.9275
0.137500 15.8323
0.143750 15.6511
0.150000 15.4810
0.156250 15.3209
0.162500 15.1700
0.168750 15.0273
0.175000 14.8922
0.181250 14.7639
0.187500 14.6420
0.193750 14.5259
0.200000 14.4151
0.204688 14.3353
0.209375 14.2582
0.218750 14.1112
0.228125 13.9730
0.237500 13.8427
0.246875 13.7196
0.256250 13.6032
0.265625 13.4927
0.275000 13.3877
0.284375 13.2877
0.293750 13.1923
0.303125 13.1012
0.312500 13.0140
0.321875 12.9305
0.331250 12.8504
0.340625 12.7734
0.350000 12.6994
0.359375 12.6281
0.368750 12.5595
0.378125 12.4932
0.387500 12.4292
0.396875 12.3674
0.406250 12.3076
0.415625 12.2498
0.425000 12.1937
0.443750 12.0867
0.462500 11.9856
0.500000 11.7997
0.531250 11.6588
0.562500 11.5286
0.593750 11.4079
0.625000 11.2954
0.687500 11.0916
0.750000 10.9110
0.812500 10.7491
0.875000 10.6029
0.937500 10.4694
1.00000 10.3465
1.06250 10.2328
1.12500 10.1271
1.18750 10.0284
1.25000 9.93572
1.31250 9.84849
1.37500 9.76606
1.50000 9.61365
1.62500 9.47526
1.75000 9.34866
1.87500 9.23178
2.00000 9.12293
2.09375 9.04602
2.18750 8.97282
2.37500 8.83594
2.56250 8.70997
2.75000 8.59333
2.93750 8.48455
3.12500 8.38246
3.31250 8.28634
3.50000 8.19549
3.68750 8.10934
3.87500 8.02739
4.06250 7.94925
4.25000 7.87456
4.43750 7.80302
4.62500 7.73437
4.81250 7.66838
5.00000 7.60491
5.31250 7.50408
5.62500 7.40882
5.93750 7.31862
6.25000 7.23298
6.56250 7.15148
6.87500 7.07376
7.18750 6.99951
7.50000 6.92845
7.81250 6.86033
8.12500 6.79496
8.43750 6.73212
8.75000 6.67167
9.06250 6.61343
9.37500 6.55728
9.68750 6.50309
10.0000 6.45074
10.3125 6.40013
10.6250 6.35122
11.2500 6.25793
11.8750 6.17019
12.5000 6.08752
13.1250 6.00946
13.7500 5.93560
14.3750 5.86560
15.0000 5.79914
15.6250 5.73594
16.2500 5.67576
16.8750 5.61837
17.5000 5.56358
18.1250 5.51121
18.7500 5.46109
19.3750 5.41308
20.0000 5.36706
20.9375 5.30146
21.8750 5.23962
22.8125 5.18124
23.7500 5.12604
24.6875 5.07375
25.6250 5.02415
26.5625 4.97703
27.5000 4.93221
28.4375 4.88951
29.3750 4.84880
30.3125 4.80992
31.2500 4.77277
32.1875 4.73722
33.1250 4.70317
34.0625 4.67053
35.0000 4.63922
35.9375 4.60914
36.8750 4.58023
37.8125 4.55242
38.7500 4.52565
39.6875 4.49986
40.6250 4.47500
41.5625 4.45101
42.5000 4.42786
43.4375 4.40549
44.3750 4.38388
45.3125 4.36297
46.2500 4.34274
47.1875 4.32315
48.1250 4.30420
50.0000 4.26798
51.5625 4.23943
53.1250 4.21225
54.6875 4.18634
56.2500 4.16162
57.8125 4.13800
59.3750 4.11541
60.9375 4.09379
62.5000 4.07307
64.0625 4.05320
65.6250 4.03412
67.1875 4.01579
68.7500 3.99817
70.3125 3.98120
71.8750 3.96487
73.4375 3.94913
75.0000 3.93394
76.5625 3.91929
78.1250 3.90513
79.6875 3.89146
81.2500 3.87823
82.8125 3.86544
84.3750 3.85305
85.9375 3.84105
87.5000 3.82944
90.6250 3.80723
93.7500 3.78631
96.8750 3.76656
100.000 3.74789
103.125 3.73021
106.250 3.71344
109.375 3.69751
112.500 3.68236
115.625 3.66792
118.750 3.65416
121.875 3.64101
125.000 3.62844
128.125 3.61641
131.250 3.60489
134.375 3.59383
137.500 3.58322
140.625 3.57302
143.750 3.56321
146.875 3.55377
150.000 3.54467
153.125 3.53590
156.250 3.52744
159.375 3.51927
162.500 3.51137
165.625 3.50373
168.750 3.49634
171.875 3.48919
175.000 3.48226
178.906 3.47391
182.813 3.46586
186.719 3.45811
190.625 3.45064
193.750 3.44487
196.875 3.43929
198.438 3.43657
200.000 3.43389
201.379 3.43158
202.757 3.42931
204.136 3.42710
205.515 3.42494
206.893 3.42287
208.272 3.42091
208.961 3.41999
209.651 3.41911
210.340 3.41830
211.029 3.41758
211.574 3.41711
212.118 3.41673
212.662 3.41650
213.206 3.41647
213.478 3.41655
213.750 3.41672
214.023 3.41701
214.295 3.41744
214.567 3.41806
214.839 3.41891
215.111 3.42007
215.383 3.42167
215.564 3.42305
215.746 3.42477
215.927 3.42694
216.109 3.42970
216.290 3.43325
216.381 3.43541
216.471 3.43790
216.562 3.44077
216.653 3.44412
216.744 3.44806
216.834 3.45272
216.925 3.45831
217.016 3.46510
217.106 3.47349
217.152 3.47847
217.197 3.48411
217.243 3.49060
217.288 3.49813
217.333 3.50707
217.379 3.51791
217.424 3.53146
217.447 3.53960
217.469 3.54887
217.492 3.55959
217.515 3.57205
217.537 3.58662
217.560 3.60369
217.584 3.62514
217.608 3.65076
217.631 3.68158
217.655 3.71876
217.667 3.74014
217.679 3.76365
217.691 3.78948
217.703 3.81786
217.715 3.84904
217.727 3.88329
217.739 3.92087
217.750 3.96210
217.762 4.00769
217.774 4.05722
217.786 4.11143
217.798 4.17070
217.810 4.23542
217.822 4.30603
217.834 4.38297
217.846 4.46670
217.858 4.55771
217.870 4.65649
217.881 4.76355
217.893 4.87943
217.905 5.00466
217.917 5.13978
217.929 5.28535
217.941 5.44192
217.953 5.61883
217.966 5.80911
217.978 6.01338
217.991 6.23043
218.003 6.46433
218.016 6.71187
218.028 6.97753
218.041 7.25752
218.053 7.55675
218.066 7.87335
218.078 8.20760
218.091 8.55678
218.103 8.92664
218.115 9.31124
218.128 9.71671
218.140 10.1363
218.156 10.6992
218.172 11.2891
218.188 11.9048
218.204 12.5403
218.220 13.2019
218.236 13.8832
218.267 15.2889
218.363 19.6339
218.388 20.7164
218.412 21.7411
218.437 22.6925
218.462 23.5448
218.481 24.0976
218.499 24.5818
218.524 25.1332
218.549 25.5366
218.564 25.7139
218.577 25.8098
218.597 25.8745
218.600 25.8754
218.601 25.8752
218.603 25.8738
218.606 25.8708
218.610 25.8603
218.620 25.8213
218.641 25.6584
218.663 25.3653
218.685 24.9547
218.708 24.3837
218.730 23.7524
218.752 23.0337
218.776 22.1561
218.796 21.3641
218.816 20.5315
218.824 20.1864
218.846 19.2138
218.868 18.2211
218.912 16.2067
218.944 14.7602
218.976 13.3702
218.992 12.7004
219.008 12.0524
219.024 11.4283
219.040 10.8334
219.062 10.0545
219.073 9.68498
219.084 9.33229
219.095 8.99005
219.106 8.66165
219.117 8.34709
219.128 8.04900
219.139 7.76180
219.150 7.48816
219.161 7.22786
219.172 6.98288
219.183 6.74843
219.194 6.52653
219.205 6.31683
219.215 6.12073
219.226 5.94247
219.236 5.77433
219.247 5.61593
219.257 5.46692
219.268 5.32693
219.278 5.19557
219.289 5.07247
219.299 4.95832
219.310 4.85055
219.320 4.74992
219.331 4.65607
219.341 4.56944
219.352 4.48802
219.362 4.41233
219.373 4.34204
219.383 4.27742
219.394 4.21692
219.404 4.16090
219.415 4.10906
219.425 4.06112
219.436 4.01684
219.446 3.97595
219.457 3.93822
219.467 3.90374
219.478 3.87165
219.488 3.84208
219.509 3.78999
219.530 3.74562
219.551 3.70820
219.570 3.67913
219.589 3.65407
219.608 3.63245
219.627 3.61384
219.646 3.59761
219.665 3.58355
219.684 3.57120
219.703 3.56042
219.741 3.54240
219.778 3.52813
219.816 3.51654
219.854 3.50693
219.892 3.49877
219.930 3.49175
219.968 3.48562
220.006 3.48018
220.082 3.47094
220.158 3.46335
220.237 3.45666
220.317 3.45103
220.397 3.44621
220.477 3.44206
220.557 3.43844
220.637 3.43527
220.717 3.43246
220.796 3.42996
220.956 3.42573
221.116 3.42228
221.275 3.41943
221.435 3.41703
221.643 3.41443
221.850 3.41227
222.058 3.41044
222.265 3.40887
222.473 3.40751
222.681 3.40632
223.096 3.40431
223.511 3.40267
223.926 3.40130
224.341 3.40010
224.756 3.39905
225.395 3.39764
226.034 3.39642
226.673 3.39536
227.311 3.39444
227.854 3.39377
228.397 3.39321
228.940 3.39278
229.483 3.39253
230.026 3.39251
230.297 3.39262
230.569 3.39283
230.840 3.39318
231.112 3.39371
231.383 3.39447
231.655 3.39554
231.862 3.39663
232.070 3.39803
232.277 3.39987
232.485 3.40229
232.589 3.40380
232.693 3.40555
232.796 3.40760
232.900 3.41002
233.004 3.41288
233.108 3.41632
233.212 3.42050
233.315 3.42562
233.403 3.43097
233.491 3.43755
233.579 3.44588
233.623 3.45096
233.667 3.45689
233.711 3.46395
233.754 3.47253
233.798 3.48324
233.842 3.49702
233.864 3.50547
233.886 3.51521
233.908 3.52658
233.930 3.53982
233.952 3.55544
233.974 3.57376
233.996 3.59551
234.018 3.62113
234.040 3.65162
234.062 3.68776
234.084 3.73058
234.106 3.78099
234.117 3.80964
234.128 3.84077
234.139 3.87455
234.150 3.91085
234.161 3.95054
234.172 3.99352
234.183 4.04003
234.194 4.08984
234.205 4.14410
234.216 4.20265
234.227 4.26576
234.238 4.33371
234.249 4.40678
234.260 4.48528
234.271 4.56950
234.281 4.65891
234.292 4.75545
234.303 4.85865
234.314 4.96882
234.325 5.08517
234.336 5.21015
234.347 5.34303
234.358 5.48412
234.369 5.63230
234.382 5.82031
234.395 6.02100
234.408 6.23480
234.421 6.46025
234.434 6.70118
234.447 6.95616
234.460 7.22540
234.473 7.50681
234.486 7.80483
234.499 8.11733
234.512 8.44422
234.525 8.78265
234.538 9.13759
234.551 9.50611
234.577 10.2788
234.593 10.7798
234.609 11.2973
234.641 12.3704
234.705 14.6168
234.748 16.1622
234.770 16.9109
234.792 17.6268
234.816 18.3667
234.840 19.0452
234.862 19.6086
234.884 20.1027
234.912 20.6241
234.934 20.9421
234.956 21.1717
234.977 21.3090
234.997 21.3564
235.000 21.3571
235.001 21.3569
235.003 21.3558
235.006 21.3536
235.010 21.3460
235.020 21.3178
235.038 21.2111
235.061 20.9973
235.083 20.6940
235.099 20.4187
235.101 20.3816
235.107 20.2647
235.113 20.1418
235.125 19.8810
235.148 19.3476
235.170 18.7497
235.198 17.9083
235.226 16.9963
235.271 15.4674
235.315 13.8897
235.352 12.6121
235.388 11.3814
235.406 10.7921
235.425 10.2239
235.443 9.67902
235.461 9.15921
235.476 8.74532
235.491 8.35048
235.507 7.97510
235.522 7.62167
235.537 7.28557
235.552 6.97115
235.567 6.67402
235.582 6.39776
235.598 6.13826
235.613 5.89687
235.628 5.67297
235.643 5.46720
235.658 5.27609
235.666 5.18633
235.673 5.10140
235.681 5.01895
235.689 4.94002
235.696 4.86452
235.704 4.79327
235.717 4.67541
235.730 4.56752
235.743 4.46742
235.756 4.37609
235.769 4.29164
235.783 4.21485
235.796 4.14457
235.809 4.08035
235.822 4.02133
235.835 3.96796
235.848 3.91904
235.861 3.87491
235.875 3.83455
235.888 3.79822
235.901 3.76529
235.914 3.73546
235.927 3.70826
235.940 3.68385
235.953 3.66161
235.966 3.64166
235.993 3.60719
236.019 3.57911
236.045 3.55601
236.072 3.53702
236.098 3.52133
236.124 3.50833
236.150 3.49739
236.177 3.48814
236.203 3.48025
236.229 3.47345
236.282 3.46231
236.334 3.45354
236.387 3.44638
236.440 3.44038
236.492 3.43524
236.545 3.43078
236.650 3.42337
236.755 3.41746
236.860 3.41265
236.965 3.40865
237.086 3.40481
237.208 3.40161
237.329 3.39890
237.450 3.39659
237.572 3.39460
237.693 3.39286
237.936 3.38999
238.178 3.38769
238.421 3.38581
238.663 3.38423
238.906 3.38289
239.246 3.38130
239.585 3.37997
239.925 3.37882
240.264 3.37780
240.604 3.37688
240.944 3.37604
241.623 3.37454
242.302 3.37322
242.981 3.37201
243.661 3.37089
244.340 3.36982
245.569 3.36800
246.798 3.36627
248.027 3.36462
249.256 3.36301
251.715 3.35990
254.173 3.35689
256.631 3.35396
259.090 3.35110
264.006 3.34554
268.146 3.34100
272.287 3.33658
279.014 3.32965
285.742 3.32297
292.470 3.31654
299.198 3.31034
305.926 3.30435
312.654 3.29858
326.110 3.28750
337.495 3.27868
348.881 3.27025
360.267 3.26219
371.652 3.25449
394.424 3.23998
417.195 3.22649
437.896 3.21503
458.598 3.20415
479.299 3.19378
500.000 3.18385
534.094 3.16837
551.141 3.16095
568.188 3.15373
585.235 3.14668
593.758 3.14321
602.282 3.13979
608.408 3.13737
611.471 3.13618
614.534 3.13500
617.598 3.13384
619.129 3.13327
620.661 3.13272
622.192 3.13218
623.724 3.13168
625.255 3.13122
626.021 3.13101
626.787 3.13083
627.519 3.13068
628.252 3.13058
628.984 3.13053
629.717 3.13058
630.449 3.13075
630.816 3.13091
631.182 3.13114
631.548 3.13146
631.914 3.13191
632.281 3.13252
632.647 3.13338
632.913 3.13424
633.179 3.13538
633.446 3.13691
633.712 3.13904
633.845 3.14044
633.979 3.14216
634.112 3.14437
634.245 3.14735
634.311 3.14932
634.378 3.15177
634.445 3.15492
634.511 3.15909
634.578 3.16473
634.644 3.17254
634.711 3.18345
634.744 3.19048
634.778 3.19880
634.836 3.21734
634.894 3.24229
634.923 3.25781
634.952 3.27568
634.982 3.29626
635.011 3.31991
635.040 3.34712
635.069 3.37813
635.098 3.41360
635.127 3.45378
635.156 3.49946
635.186 3.55086
635.215 3.60870
635.244 3.67353
635.273 3.74622
635.302 3.82686
635.331 3.91659
635.360 4.01536
635.390 4.12440
635.419 4.24348
635.448 4.37340
635.477 4.51456
635.506 4.66782
635.535 4.83236
635.564 5.00881
635.593 5.19715
635.623 5.39798
635.652 5.60965
635.681 5.83238
635.710 6.06559
635.749 6.39839
635.789 6.74583
635.829 7.10664
635.868 7.47539
635.947 8.22342
636.026 8.95066
636.064 9.27666
636.101 9.58307
636.139 9.86693
636.176 10.1223
636.218 10.3695
636.259 10.5717
636.282 10.6625
636.305 10.7381
636.334 10.8113
636.357 10.8504
636.373 10.8677
636.392 10.8785
636.400 10.8793
636.401 10.8793
636.403 10.8791
636.406 10.8787
636.410 10.8775
636.420 10.8728
636.434 10.8603
636.448 10.8426
636.471 10.7986
636.498 10.7271
636.525 10.6339
636.552 10.5203
636.571 10.4247
636.591 10.3196
636.623 10.1280
636.654 9.91343
636.686 9.67831
636.718 9.42616
636.750 9.15814
636.781 8.87787
636.845 8.29300
636.972 7.09823
637.011 6.74154
637.050 6.39801
637.089 6.06962
637.128 5.75870
637.148 5.60999
637.168 5.46703
637.187 5.32847
637.207 5.19584
637.226 5.06786
637.246 4.94586
637.265 4.82863
637.285 4.71734
637.304 4.61083
637.324 4.51012
637.344 4.41412
637.363 4.32370
637.383 4.23782
637.402 4.15725
637.422 4.08102
637.441 4.00976
637.461 3.94258
637.480 3.88000
637.500 3.82122
637.519 3.76666
637.539 3.71558
637.559 3.66833
637.598 3.58359
637.623 3.53462
637.649 3.49051
637.675 3.45090
637.700 3.41554
637.726 3.38382
637.752 3.35553
637.777 3.33037
637.803 3.30811
637.854 3.27082
637.906 3.24182
637.957 3.21935
638.008 3.20203
638.060 3.18868
638.111 3.17845
638.162 3.17056
638.214 3.16446
638.265 3.15969
638.316 3.15594
638.368 3.15294
638.419 3.15050
638.522 3.14679
638.624 3.14409
638.727 3.14198
638.830 3.14028
639.035 3.13762
639.240 3.13562
639.533 3.13348
639.827 3.13189
640.120 3.13066
640.413 3.12968
640.707 3.12888
641.000 3.12822
641.293 3.12766
641.586 3.12718
642.173 3.12638
642.760 3.12573
643.346 3.12519
643.933 3.12472
644.871 3.12406
645.810 3.12350
646.748 3.12298
647.687 3.12251
648.626 3.12206
649.564 3.12162
651.441 3.12080
653.318 3.12001
655.195 3.11924
657.072 3.11848
658.949 3.11774
661.139 3.11688
663.329 3.11603
667.709 3.11433
672.089 3.11266
676.468 3.11099
685.228 3.10769
693.988 3.10441
711.507 3.09790
746.545 3.08505
781.584 3.07236
816.622 3.05975
856.666 3.04537
886.699 3.03456
901.715 3.02914
916.731 3.02371
924.240 3.02100
927.994 3.01965
931.748 3.01831
935.502 3.01698
937.379 3.01632
939.256 3.01567
941.133 3.01504
943.010 3.01442
943.949 3.01413
944.887 3.01385
945.826 3.01358
946.764 3.01334
947.507 3.01317
948.250 3.01303
948.993 3.01294
949.736 3.01290
950.479 3.01295
950.851 3.01303
951.222 3.01315
951.594 3.01333
951.965 3.01359
