Tb-159(n,g) ENDFB-8.0
Energy(eV) XS(b)
1.00000E-05 1171.99
1.03125E-05 1154.09
1.06250E-05 1137.00
1.09375E-05 1120.64
1.12500E-05 1104.96
1.15625E-05 1089.93
1.18750E-05 1075.49
1.21875E-05 1061.61
1.25000E-05 1048.26
1.28125E-05 1035.40
1.31250E-05 1023.00
1.34375E-05 1011.03
1.37500E-05 999.475
1.43750E-05 977.506
1.50000E-05 956.924
1.56250E-05 937.591
1.62500E-05 919.383
1.68750E-05 902.197
1.75000E-05 885.940
1.81250E-05 870.531
1.87500E-05 855.899
1.93750E-05 841.981
2.00000E-05 828.721
2.09375E-05 809.955
2.18750E-05 792.409
2.28125E-05 775.956
2.37500E-05 760.487
2.46875E-05 745.908
2.56250E-05 732.136
2.65625E-05 719.100
2.75000E-05 706.736
2.84375E-05 694.989
2.93750E-05 683.809
3.03125E-05 673.152
3.12500E-05 662.978
3.21875E-05 653.251
3.31250E-05 643.941
3.40625E-05 635.017
3.50000E-05 626.455
3.59375E-05 618.230
3.68750E-05 610.321
3.78125E-05 602.707
3.87500E-05 595.372
3.96875E-05 588.298
4.06250E-05 581.470
4.25000E-05 568.499
4.43750E-05 556.359
4.62500E-05 544.965
4.81250E-05 534.243
5.00000E-05 524.131
5.15625E-05 516.128
5.31250E-05 508.482
5.46875E-05 501.165
5.62500E-05 494.155
5.78125E-05 487.432
5.93750E-05 480.976
6.09375E-05 474.769
6.25000E-05 468.797
6.40625E-05 463.045
6.56250E-05 457.499
6.71875E-05 452.148
6.87500E-05 446.981
7.18750E-05 437.156
7.50000E-05 427.952
7.81250E-05 419.306
8.12500E-05 411.163
8.43750E-05 403.477
8.75000E-05 396.207
9.06250E-05 389.316
9.37500E-05 382.772
9.68750E-05 376.548
0.000100000 370.618
0.000103125 364.959
0.000106250 359.552
0.000109375 354.379
0.000112500 349.422
0.000115625 344.668
0.000118750 340.103
0.000121875 335.714
0.000125000 331.491
0.000128125 327.424
0.000131250 323.503
0.000134375 319.719
0.000137500 316.065
0.000143750 309.118
0.000150000 302.610
0.000156250 296.496
0.000162500 290.738
0.000168750 285.303
0.000175000 280.163
0.000181250 275.290
0.000187500 270.663
0.000193750 266.262
0.000200000 262.069
0.000209375 256.134
0.000218750 250.586
0.000228125 245.383
0.000237500 240.491
0.000246875 235.881
0.000256250 231.526
0.000265625 227.404
0.000275000 223.494
0.000284375 219.780
0.000293750 216.244
0.000303125 212.874
0.000312500 209.657
0.000321875 206.581
0.000331250 203.637
0.000340625 200.815
0.000350000 198.108
0.000359375 195.507
0.000368750 193.006
0.000378125 190.598
0.000387500 188.279
0.000396875 186.042
0.000406250 183.883
0.000425000 179.781
0.000443750 175.942
0.000462500 172.339
0.000481250 168.949
0.000500000 165.751
0.000515625 163.221
0.000531250 160.803
0.000546875 158.489
0.000562500 156.273
0.000578125 154.146
0.000593750 152.105
0.000609375 150.142
0.000625000 148.254
0.000640625 146.435
0.000656250 144.681
0.000671875 142.989
0.000687500 141.355
0.000718750 138.249
0.000750000 135.338
0.000781250 132.604
0.000812500 130.030
0.000843750 127.599
0.000875000 125.300
0.000906250 123.122
0.000937500 121.053
0.000968750 119.084
0.00100000 117.209
0.00103125 115.420
0.00106250 113.710
0.00109375 112.075
0.00112500 110.507
0.00115625 109.004
0.00118750 107.561
0.00121875 106.173
0.00125000 104.838
0.00128125 103.552
0.00131250 102.312
0.00134375 101.115
0.00137500 99.9601
0.00143750 97.7635
0.00150000 95.7057
0.00156250 93.7726
0.00162500 91.9521
0.00168750 90.2338
0.00175000 88.6083
0.00181250 87.0677
0.00187500 85.6047
0.00193750 84.2131
0.00200000 82.8873
0.00209375 81.0110
0.00218750 79.2567
0.00228125 77.6116
0.00237500 76.0650
0.00246875 74.6073
0.00256250 73.2304
0.00265625 71.9270
0.00275000 70.6909
0.00284375 69.5164
0.00293750 68.3987
0.00303125 67.3332
0.00312500 66.3160
0.00321875 65.3436
0.00331250 64.4129
0.00340625 63.5208
0.00350000 62.6648
0.00359375 61.8425
0.00368750 61.0518
0.00378125 60.2907
0.00387500 59.5575
0.00396875 58.8503
0.00406250 58.1678
0.00425000 56.8711
0.00443750 55.6576
0.00462500 54.5186
0.00481250 53.4469
0.00500000 52.4361
0.00515625 51.6362
0.00531250 50.8719
0.00546875 50.1406
0.00562500 49.4400
0.00578125 48.7680
0.00593750 48.1228
0.00609375 47.5025
0.00625000 46.9056
0.00640625 46.3308
0.00656250 45.7766
0.00671875 45.2418
0.00687500 44.7254
0.00718750 43.7436
0.00750000 42.8238
0.00781250 41.9598
0.00812500 41.1461
0.00843750 40.3780
0.00875000 39.6515
0.00906250 38.9629
0.00937500 38.3090
0.00968750 37.6870
0.0100000 37.0945
0.0103125 36.5291
0.0106250 35.9888
0.0109375 35.4720
0.0112500 34.9768
0.0115625 34.5019
0.0118750 34.0459
0.0121875 33.6076
0.0125000 33.1858
0.0128125 32.7796
0.0131250 32.3880
0.0134375 32.0102
0.0137500 31.6453
0.0143750 30.9516
0.0150000 30.3018
0.0156250 29.6913
0.0162500 29.1164
0.0168750 28.5737
0.0175000 28.0603
0.0181250 27.5738
0.0187500 27.1118
0.0193750 26.6723
0.0200000 26.2537
0.0206625 25.8309
0.0213250 25.4279
0.0219875 25.0434
0.0226500 24.6759
0.0233125 24.3242
0.0239750 23.9872
0.0246375 23.6639
0.0253000 23.3534
0.0264578 22.8391
0.0276156 22.3576
0.0287734 21.9056
0.0299313 21.4801
0.0310891 21.0788
0.0322469 20.6993
0.0334047 20.3398
0.0345625 19.9985
0.0355274 19.7270
0.0364922 19.4662
0.0374570 19.2156
0.0384219 18.9745
0.0393867 18.7423
0.0403516 18.5185
0.0413164 18.3026
0.0422813 18.0941
0.0442109 17.6980
0.0461406 17.3270
0.0480703 16.9787
0.0500000 16.6508
0.0515625 16.3989
0.0531250 16.1583
0.0546875 15.9281
0.0562500 15.7077
0.0578125 15.4962
0.0593750 15.2933
0.0609375 15.0982
0.0625000 14.9106
0.0640625 14.7299
0.0656250 14.5558
0.0671875 14.3878
0.0687500 14.2257
0.0718750 13.9174
0.0750000 13.6287
0.0781250 13.3574
0.0812500 13.1020
0.0843750 12.8609
0.0875000 12.6330
0.0906250 12.4171
0.0937500 12.2122
0.0968750 12.0173
0.100000 11.8317
0.103125 11.6547
0.106250 11.4856
0.109375 11.3240
0.112500 11.1691
0.115625 11.0207
0.118750 10.8782
0.121875 10.7413
0.125000 10.6097
0.128125 10.4831
0.131250 10.3611
0.137500 10.1298
0.143750 9.91372
0.150000 9.71140
0.156250 9.52151
0.162500 9.34286
0.168750 9.17441
0.175000 9.01523
0.181250 8.86452
0.187500 8.72159
0.193750 8.58585
0.200000 8.45675
0.209375 8.27426
0.218750 8.10376
0.228125 7.94412
0.237500 7.79430
0.246875 7.65337
0.256250 7.52050
0.265625 7.39499
0.275000 7.27620
0.284375 7.16358
0.293750 7.05662
0.303125 6.95489
0.312500 6.85800
0.321875 6.76559
0.331250 6.67735
0.340625 6.59299
0.350000 6.51224
0.359375 6.43488
0.368750 6.36069
0.378125 6.28947
0.387500 6.22107
0.396875 6.15536
0.406250 6.09222
0.425000 5.97270
0.443750 5.86134
0.462500 5.75750
0.500000 5.57006
0.531250 5.43134
0.562500 5.30580
0.593750 5.19212
0.625000 5.08887
0.687500 4.90916
0.750000 4.75936
0.812500 4.63424
0.875000 4.53044
0.937500 4.44466
1.00000 4.37441
1.06250 4.31860
1.12500 4.27613
1.18750 4.24620
1.25000 4.22832
1.31250 4.22226
1.40625 4.23549
1.50000 4.27602
1.56250 4.31940
1.62500 4.37689
1.68750 4.44973
1.75000 4.53953
1.81250 4.64831
1.87500 4.77864
1.93750 4.93370
2.00000 5.11668
2.05562 5.30759
2.11123 5.53040
2.16684 5.79004
2.19465 5.93579
2.22246 6.09353
2.25027 6.26443
2.27807 6.44982
2.30588 6.65124
2.33369 6.87041
2.36150 7.10933
2.38930 7.37019
2.41711 7.65519
2.44492 7.96688
2.47272 8.30964
2.50053 8.68846
2.52834 9.10782
2.55615 9.57311
2.58395 10.0911
2.61176 10.6697
2.63957 11.3189
2.66737 12.0504
2.69139 12.7594
2.71541 13.5518
2.73942 14.4410
2.75143 14.9270
2.76344 15.4435
2.77544 15.9933
2.78745 16.5790
2.79946 17.2038
2.81147 17.8712
2.82348 18.5855
2.83548 19.3511
2.84749 20.1737
2.85950 21.0589
2.87340 22.1710
2.88730 23.3876
2.90121 24.7222
2.91511 26.1903
2.92902 27.8105
2.94292 29.6046
2.95682 31.5986
2.97073 33.8233
2.97768 35.0338
2.98463 36.3165
2.99158 37.6774
2.99853 39.1230
3.00549 40.6605
3.01244 42.2979
3.01939 44.0442
3.02634 45.9088
3.03329 47.9033
3.04024 50.0399
3.04720 52.3325
3.05415 54.7967
3.06110 57.4502
3.06805 60.3133
3.07500 63.4089
3.08196 66.7627
3.08891 70.4057
3.09586 74.3720
3.10281 78.7013
3.10976 83.4390
3.11671 88.6401
3.12367 94.3663
3.13062 100.691
3.13757 107.700
3.14452 115.498
3.14800 119.730
3.15147 124.207
3.15495 128.947
3.15843 133.972
3.16190 139.304
3.16538 144.970
3.16885 150.996
3.17233 157.413
3.17581 164.255
3.17928 171.559
3.18276 179.365
3.18623 187.718
3.18971 196.668
3.19318 206.265
3.19587 214.165
3.19856 222.519
3.20124 231.356
3.20393 240.712
3.20661 250.621
3.20930 261.122
3.21199 272.254
3.21467 284.060
3.21736 296.584
3.22004 309.872
3.22273 323.972
3.22542 338.933
3.22810 354.805
3.23079 371.639
3.23347 389.486
3.23616 408.389
3.23932 432.064
3.24248 457.355
3.24564 484.330
3.24880 513.052
3.25228 546.720
3.25575 582.603
3.25923 620.717
3.26270 661.035
3.26618 703.526
3.26965 748.081
3.27313 794.555
3.27661 842.735
3.27952 884.235
3.28243 926.571
3.28534 969.562
3.28825 1012.94
3.29116 1056.48
3.29407 1099.86
3.29698 1142.79
3.29989 1184.93
3.30478 1253.02
3.30967 1316.25
3.31456 1372.95
3.31944 1421.52
3.32433 1460.50
3.32922 1488.71
3.33167 1498.49
3.33411 1505.26
3.33656 1508.97
3.33900 1509.60
3.34179 1506.55
3.34459 1499.49
3.34738 1488.51
3.35018 1473.73
3.35297 1455.30
3.35576 1433.41
3.35856 1408.29
3.36135 1380.19
3.36528 1336.15
3.36921 1287.58
3.37313 1235.30
3.37706 1180.21
3.38099 1123.14
3.38492 1064.94
3.38884 1006.34
3.39277 948.066
3.40108 828.395
3.40524 771.554
3.40940 717.282
3.41355 665.839
3.41771 617.435
3.42187 572.148
3.42602 530.020
3.43018 490.994
3.43434 454.990
3.43849 421.883
3.44265 391.526
3.44681 363.733
3.45096 338.330
3.45512 315.135
3.45928 293.971
3.46173 282.339
3.46419 271.323
3.46665 260.884
3.46910 250.989
3.47156 241.604
3.47402 232.708
3.47893 216.255
3.48384 201.415
3.48875 188.011
3.49367 175.870
3.49858 164.854
3.50273 156.313
3.50689 148.416
3.51105 141.102
3.51520 134.318
3.51936 128.012
3.52352 122.144
3.52767 116.673
3.53183 111.566
3.53599 106.789
3.54014 102.317
3.54430 98.1234
3.54846 94.1872
3.55261 90.4860
3.55677 87.0032
3.56093 83.7204
3.56508 80.6241
3.56924 77.6991
3.57340 74.9337
3.58171 69.8376
3.59002 65.2549
3.59834 61.1200
3.60665 57.3755
3.61496 53.9748
3.62328 50.8764
3.63159 48.0461
3.63802 46.0234
3.64444 44.1305
3.65086 42.3565
3.65729 40.6918
3.66371 39.1274
3.67014 37.6555
3.67656 36.2689
3.68298 34.9611
3.68941 33.7262
3.69583 32.5589
3.70868 30.4083
3.72153 28.4753
3.73437 26.7320
3.74269 25.6935
3.75100 24.7188
3.75932 23.8028
3.76763 22.9409
3.77594 22.1290
3.78426 21.3634
3.80088 19.9577
3.81751 18.6999
3.83414 17.5702
3.85076 16.5522
3.86739 15.6320
3.87797 15.0918
3.88855 14.5836
3.90971 13.6543
3.93087 12.8274
3.95203 12.0892
3.97320 11.4279
3.99436 10.8333
4.01552 10.2973
4.03668 9.81300
4.05331 9.46504
4.06993 9.14314
4.08656 8.84516
4.10319 8.56922
4.11981 8.31358
4.13644 8.07676
4.15307 7.85742
4.16969 7.65440
4.20295 7.29319
4.23620 6.98628
4.26945 6.72847
4.30271 6.51611
4.33898 6.33362
4.35712 6.26124
4.37526 6.20147
4.39340 6.15450
4.41154 6.12069
4.42968 6.10058
4.44781 6.09489
4.47200 6.11142
4.49618 6.15832
4.52037 6.23965
4.54455 6.36092
4.55664 6.43882
4.56874 6.52979
4.58083 6.63524
4.59292 6.75687
4.60501 6.89661
4.61710 7.05677
4.62920 7.24003
4.64129 7.44959
4.65489 7.72161
4.66850 8.03846
4.68210 8.40851
4.68890 8.61668
4.69570 8.84226
4.70251 9.08712
4.70931 9.35324
4.71611 9.64294
4.72291 9.95885
4.72971 10.3040
4.73652 10.6819
4.74332 11.0965
4.75012 11.5525
4.75843 12.1741
4.76675 12.8775
4.77506 13.6772
4.77922 14.1184
4.78337 14.5904
4.78753 15.0963
4.79169 15.6389
4.79584 16.2218
4.80000 16.8486
4.80416 17.5238
4.80831 18.2518
4.81247 19.0379
4.81663 19.8876
4.82267 21.2502
4.82570 21.9933
4.82872 22.7814
4.83174 23.6176
4.83476 24.5050
4.83779 25.4470
4.84081 26.4470
4.84383 27.5086
4.84686 28.6354
4.84988 29.8312
4.85290 31.0999
4.85593 32.4451
4.85895 33.8707
4.86197 35.3804
4.86499 36.9777
4.86915 39.3231
4.87331 41.8480
4.87747 44.5585
4.88162 47.4584
4.88578 50.5509
4.88993 53.8338
4.89409 57.3043
4.89825 60.9527
4.90278 65.1234
4.90732 69.4690
4.91639 78.5651
4.92623 88.7196
4.93607 98.6336
4.94099 103.301
4.94591 107.658
4.95083 111.623
4.95575 115.110
4.96181 118.642
4.96484 120.055
4.96788 121.216
4.97091 122.115
4.97394 122.743
4.97697 123.095
4.98000 123.169
4.98500 122.679
4.99000 121.442
4.99500 119.487
5.00000 116.862
5.00417 114.205
5.00834 111.167
5.01251 107.794
5.01668 104.137
5.02502 96.1767
5.03336 87.6997
5.04671 73.9869
5.05338 67.4037
5.06006 61.1611
5.06461 57.1396
5.06916 53.3301
5.07371 49.7412
5.07826 46.3798
5.08282 43.2449
5.08737 40.3348
5.09192 37.6417
5.09647 35.1582
5.09981 33.4634
5.10315 31.8708
5.10648 30.3757
5.10982 28.9730
5.11316 27.6578
5.11650 26.4251
5.11984 25.2700
5.12317 24.1880
5.12651 23.1738
5.12985 22.2233
5.13319 21.3322
5.13652 20.4968
5.13986 19.7126
5.14320 18.9763
5.14654 18.2846
5.14988 17.6345
5.15382 16.9153
5.15777 16.2454
5.16171 15.6207
5.16565 15.0374
5.16960 14.4921
5.17354 13.9816
5.17749 13.5032
5.18143 13.0543
5.18932 12.2358
5.19721 11.5100
5.20510 10.8633
5.21299 10.2846
5.21967 9.84101
5.22634 9.43470
5.23302 9.06153
5.23969 8.71798
5.24637 8.40085
5.25304 8.10755
5.25972 7.83564
5.26640 7.58311
5.27307 7.34809
5.27975 7.12899
5.29310 6.73304
5.30645 6.38558
5.31980 6.07890
5.33072 5.85390
5.34165 5.64918
5.35257 5.46232
5.36350 5.29125
5.37442 5.13418
5.38534 4.98958
5.39627 4.85612
5.40719 4.73268
5.42904 4.51190
5.45089 4.32071
5.47273 4.15400
5.49458 4.00775
5.51643 3.87874
5.53827 3.76442
5.56012 3.66262
5.58197 3.57156
5.60382 3.48970
5.62566 3.41579
5.66936 3.28804
5.71305 3.18231
5.75675 3.09416
5.80044 3.02022
5.84414 2.95806
5.90725 2.88531
5.97037 2.82778
6.03348 2.78252
6.09660 2.74763
6.15971 2.72144
6.22283 2.70265
6.28594 2.69030
6.34906 2.68362
6.42188 2.68222
6.49471 2.68692
6.64035 2.71276
6.78600 2.75975
6.93165 2.82426
7.07730 2.90723
7.22295 3.00935
7.36860 3.13101
7.51425 3.27532
7.62106 3.39728
7.72787 3.53405
7.83468 3.68726
7.94149 3.85889
8.04830 4.05128
8.15511 4.26727
8.26192 4.51026
8.36873 4.78435
8.46583 5.06471
8.56293 5.37944
8.66003 5.73403
8.70858 5.92830
8.75713 6.13514
8.80568 6.35564
8.85423 6.59097
8.90278 6.84245
8.95133 7.11153
8.99988 7.39961
9.04843 7.70809
9.09698 8.03933
9.14552 8.39656
9.19893 8.82283
9.25233 9.28748
9.30574 9.79500
9.35914 10.3508
9.41255 10.9611
9.46595 11.6333
9.51936 12.3762
9.57276 13.1998
9.62617 14.1163
9.67957 15.1405
9.70628 15.6982
9.73298 16.2897
9.75968 16.9177
9.78638 17.5853
9.81309 18.2960
9.83979 19.0534
9.86649 19.8619
9.89319 20.7260
9.91989 21.6511
9.94660 22.6427
9.97330 23.7076
10.0000 24.8533
10.0359 26.5364
10.0718 28.4050
10.1077 30.4887
10.1256 31.6211
10.1436 32.8196
10.1615 34.0907
10.1795 35.4396
10.1974 36.8729
10.2154 38.3972
10.2333 40.0224
10.2513 41.7571
10.2692 43.6115
10.2872 45.5959
10.3031 47.4817
10.3191 49.4899
10.3410 52.4747
10.3629 55.7454
10.3849 59.3433
10.4068 63.3102
10.4288 67.7026
10.4397 70.0770
10.4507 72.5796
10.4617 75.2247
10.4726 78.0210
10.4836 80.9801
10.4946 84.1124
10.5085 88.3795
10.5225 92.9887
10.5364 97.9782
10.5504 103.392
10.5644 109.280
10.5713 112.420
10.5783 115.702
10.5853 119.133
10.5923 122.723
10.5993 126.484
10.6062 130.424
10.6172 137.012
10.6282 144.127
10.6391 151.828
10.6501 160.176
10.6556 164.627
10.6611 169.264
10.6666 174.114
10.6720 179.174
10.6775 184.475
10.6830 190.012
10.6885 195.811
10.6940 201.889
10.6995 208.276
10.7049 214.971
10.7104 222.018
10.7159 229.418
10.7214 237.224
10.7269 245.436
10.7324 254.101
10.7378 263.252
10.7433 272.948
10.7488 283.195
10.7543 294.078
10.7598 305.610
10.7653 317.892
10.7708 330.943
10.7762 344.858
10.7817 359.717
10.7887 380.154
10.7922 391.067
10.7957 402.482
10.7992 414.430
10.8027 426.946
10.8061 440.066
10.8096 453.831
10.8131 468.282
10.8166 483.465
10.8201 499.431
10.8236 516.231
10.8271 533.922
10.8306 552.567
10.8341 572.230
10.8376 592.981
10.8430 628.010
10.8485 666.166
10.8513 686.623
10.8540 707.938
10.8568 730.233
10.8595 753.560
10.8622 778.063
10.8650 803.620
10.8677 830.377
10.8705 858.393
10.8732 887.731
10.8759 918.455
10.8787 950.633
10.8814 984.332
10.8842 1019.75
10.8869 1056.71
10.8897 1095.41
10.8924 1135.91
10.8951 1178.46
10.8979 1222.82
10.9006 1269.21
10.9034 1317.71
10.9061 1368.59
10.9089 1421.54
10.9116 1476.82
10.9143 1534.49
10.9171 1594.63
10.9198 1657.29
10.9226 1722.54
10.9253 1790.42
10.9308 1934.54
10.9363 2089.43
10.9418 2255.82
10.9472 2433.10
10.9527 2621.75
10.9582 2820.71
10.9637 3029.68
10.9692 3247.82
10.9761 3537.13
10.9831 3836.50
10.9971 4450.11
11.0081 4926.09
11.0190 5373.21
11.0279 5700.56
11.0324 5847.83
11.0369 5982.27
11.0413 6102.56
11.0458 6207.50
11.0502 6296.02
11.0547 6367.21
11.0585 6413.93
11.0624 6446.96
11.0662 6466.03
11.0700 6471.01
11.0731 6464.82
11.0781 6435.56
11.0830 6382.90
11.0880 6307.55
11.0930 6210.72
11.0980 6093.28
11.1029 5957.20
11.1079 5803.62
11.1129 5635.03
11.1215 5311.42
11.1302 4958.85
11.1388 4587.92
11.1474 4209.08
11.1561 3829.67
11.1648 3460.19
11.1735 3107.40
11.1778 2938.91
11.1821 2776.37
11.1865 2620.15
11.1908 2470.53
11.1952 2327.73
11.1995 2191.85
11.2038 2062.93
11.2082 1940.94
11.2125 1825.81
11.2169 1717.41
11.2206 1629.01
11.2244 1545.37
11.2281 1466.33
11.2319 1391.72
11.2356 1321.37
11.2394 1255.10
11.2431 1192.72
11.2468 1134.20
11.2506 1079.04
11.2543 1027.20
11.2581 978.508
11.2618 932.897
11.2656 889.949
11.2693 849.620
11.2731 811.746
11.2768 776.263
11.2812 737.759
11.2855 701.919
11.2898 668.536
11.2942 637.421
11.2985 608.396
11.3029 581.296
11.3072 555.970
11.3115 532.277
11.3159 510.089
11.3202 489.286
11.3246 469.761
11.3289 451.414
11.3332 434.154
11.3376 417.898
11.3419 402.570
11.3463 388.133
11.3510 373.235
11.3557 359.240
11.3605 346.020
11.3652 333.570
11.3747 310.652
11.3841 290.097
11.3936 271.583
11.4031 254.841
11.4125 239.644
11.4220 225.819
11.4307 214.186
11.4394 203.450
11.4480 193.520
11.4567 184.314
11.4654 175.763
11.4741 167.804
11.4828 160.383
11.4914 153.451
11.5001 146.965
11.5088 140.889
11.5175 135.186
11.5262 129.827
11.5348 124.785
11.5435 120.034
11.5522 115.552
11.5609 111.320
11.5782 103.530
11.5956 96.5382
11.6130 90.2375
11.6303 84.5393
11.6477 79.3687
11.6650 74.6622
11.6824 70.3657
11.6998 66.4350
11.7140 63.4580
11.7282 60.6804
11.7424 58.0809
11.7566 55.6478
11.7708 53.3640
11.7850 51.2203
11.7992 49.2038
11.8134 47.3046
11.8276 45.5126
11.8418 43.8220
11.8560 42.2244
11.8702 40.7129
11.8986 37.9240
11.9270 35.4149
11.9444 34.0027
11.9617 32.6741
11.9791 31.4226
11.9964 30.2423
12.0138 29.1279
12.0312 28.0746
12.0659 26.1344
12.1006 24.3908
12.1353 22.8183
12.1700 21.3953
12.2048 20.1038
12.2458 18.7249
12.2868 17.4862
12.3279 16.3695
12.3689 15.3596
12.4099 14.4438
12.4509 13.6107
12.4920 12.8500
12.5330 12.1536
12.5677 11.6093
12.6024 11.1025
12.6372 10.6302
12.6719 10.1894
12.7066 9.77743
12.7413 9.39205
12.7760 9.03113
12.8108 8.69286
12.8455 8.37537
12.8802 8.07722
12.9149 7.79705
12.9496 7.53362
12.9844 7.28583
13.0191 7.05267
13.0885 6.62684
13.1579 6.24993
13.2274 5.91728
13.2968 5.62538
13.3663 5.37195
13.4357 5.15590
13.5051 4.97780
13.5399 4.90367
13.5746 4.84017
13.6093 4.78807
13.6440 4.74836
13.6945 4.71555
13.7198 4.71185
13.7450 4.71795
13.7766 4.74144
13.8081 4.78565
13.8397 4.85488
13.8713 4.95484
13.8870 5.01871
13.9028 5.09337
13.9186 5.18031
13.9344 5.28133
13.9502 5.39855
13.9659 5.53458
13.9817 5.69263
13.9975 5.87666
14.0149 6.11511
14.0235 6.25095
14.0322 6.39956
14.0409 6.56241
14.0496 6.74127
14.0583 6.93814
14.0669 7.15540
14.0756 7.39584
14.0843 7.66274
14.0930 7.96001
14.1017 8.29226
14.1103 8.66498
14.1190 9.08470
14.1277 9.55918
14.1364 10.0976
14.1451 10.7107
14.1494 11.0492
14.1537 11.4113
14.1581 11.7988
14.1624 12.2139
14.1668 12.6588
14.1711 13.1356
14.1754 13.6470
14.1798 14.1955
14.1841 14.7839
14.1885 15.4150
14.1928 16.0919
14.1971 16.8176
14.2015 17.5953
14.2058 18.4283
14.2096 19.1951
14.2133 20.0078
14.2171 20.8684
14.2208 21.7791
14.2246 22.7419
14.2283 23.7586
14.2321 24.8313
14.2358 25.9584
14.2396 27.1475
14.2433 28.3971
14.2471 29.7083
14.2508 31.0782
14.2583 34.0144
14.2658 37.1984
14.2701 39.1563
14.2745 41.1946
14.2832 45.4988
14.2918 50.0743
14.3005 54.8629
14.3179 64.8208
14.3266 69.7949
14.3352 74.6241
14.3415 77.9768
14.3516 82.9064
14.3566 85.1363
14.3616 87.1820
14.3666 89.0231
14.3716 90.6408
14.3766 92.0183
14.3816 93.1409
14.3862 93.9369
