Er-170(n,tot) ENDFB-8.0
Energy(eV) XS(b)
1.00000E-05 29729.0
1.03125E-05 29275.1
1.06250E-05 28841.5
1.09375E-05 28426.5
1.12500E-05 28028.9
1.15625E-05 27647.6
1.18750E-05 27281.4
1.21875E-05 26929.4
1.25000E-05 26590.7
1.28125E-05 26264.5
1.31250E-05 25950.0
1.34375E-05 25646.5
1.37500E-05 25353.4
1.43750E-05 24796.2
1.50000E-05 24274.2
1.56250E-05 23783.8
1.62500E-05 23322.0
1.68750E-05 22886.1
1.75000E-05 22473.8
1.81250E-05 22082.9
1.87500E-05 21711.8
1.93750E-05 21358.8
2.00000E-05 21022.5
2.09375E-05 20546.6
2.18750E-05 20101.5
2.28125E-05 19684.2
2.37500E-05 19291.9
2.46875E-05 18922.1
2.56250E-05 18572.8
2.65625E-05 18242.2
2.75000E-05 17928.7
2.84375E-05 17630.7
2.93750E-05 17347.2
3.03125E-05 17076.9
3.12500E-05 16818.8
3.21875E-05 16572.2
3.31250E-05 16336.0
3.40625E-05 16109.7
3.50000E-05 15892.6
3.59375E-05 15684.0
3.68750E-05 15483.4
3.78125E-05 15290.3
3.87500E-05 15104.3
3.96875E-05 14924.9
4.06250E-05 14751.7
4.25000E-05 14422.8
4.43750E-05 14114.9
4.62500E-05 13825.9
4.81250E-05 13554.0
5.00000E-05 13297.6
5.15625E-05 13094.6
5.31250E-05 12900.7
5.46875E-05 12715.2
5.62500E-05 12537.4
5.78125E-05 12366.9
5.93750E-05 12203.2
6.09375E-05 12045.8
6.25000E-05 11894.4
6.40625E-05 11748.5
6.56250E-05 11607.9
6.71875E-05 11472.2
6.87500E-05 11341.1
7.18750E-05 11092.0
7.50000E-05 10858.6
7.81250E-05 10639.4
8.12500E-05 10432.9
8.43750E-05 10238.0
8.75000E-05 10053.7
9.06250E-05 9878.94
9.37500E-05 9713.03
9.68750E-05 9555.21
0.000100000 9404.85
0.000103125 9261.38
0.000106250 9124.29
0.000109375 8993.13
0.000112500 8867.46
0.000115625 8746.93
0.000118750 8631.19
0.000121875 8519.93
0.000125000 8412.87
0.000128125 8309.75
0.000131250 8210.34
0.000134375 8114.42
0.000137500 8021.79
0.000143750 7845.68
0.000150000 7680.69
0.000156250 7525.71
0.000162500 7379.77
0.000168750 7242.01
0.000175000 7111.71
0.000181250 6988.20
0.000187500 6870.93
0.000193750 6759.38
0.000200000 6653.11
0.000209375 6502.71
0.000218750 6362.10
0.000228125 6230.24
0.000237500 6106.29
0.000246875 5989.46
0.000256250 5879.11
0.000265625 5774.66
0.000275000 5675.60
0.000284375 5581.48
0.000293750 5491.91
0.000303125 5406.53
0.000312500 5325.03
0.000321875 5247.11
0.000331250 5172.53
0.000340625 5101.06
0.000350000 5032.47
0.000359375 4966.60
0.000368750 4903.25
0.000378125 4842.27
0.000387500 4783.53
0.000396875 4726.88
0.000406250 4672.20
0.000425000 4568.33
0.000443750 4471.13
0.000462500 4379.90
0.000481250 4294.06
0.000500000 4213.11
0.000515625 4149.05
0.000531250 4087.84
0.000546875 4029.28
0.000562500 3973.18
0.000578125 3919.38
0.000593750 3867.71
0.000609375 3818.05
0.000625000 3770.27
0.000640625 3724.24
0.000656250 3679.87
0.000671875 3637.07
0.000687500 3595.73
0.000718750 3517.14
0.000750000 3443.53
0.000781250 3374.39
0.000812500 3309.28
0.000843750 3247.83
0.000875000 3189.71
0.000906250 3134.63
0.000937500 3082.34
0.000968750 3032.60
0.00100000 2985.22
0.00103125 2940.01
0.00106250 2896.82
0.00109375 2855.49
0.00112500 2815.91
0.00115625 2777.95
0.00118750 2741.49
0.00121875 2706.46
0.00125000 2672.75
0.00128125 2640.28
0.00131250 2608.99
0.00134375 2578.80
0.00137500 2549.64
0.00143750 2494.22
0.00150000 2442.31
0.00156250 2393.56
0.00162500 2347.67
0.00168750 2304.35
0.00175000 2263.39
0.00181250 2224.57
0.00187500 2187.72
0.00193750 2152.67
0.00200000 2119.29
0.00209375 2072.07
0.00218750 2027.93
0.00228125 1986.55
0.00237500 1947.66
0.00246875 1911.02
0.00256250 1876.42
0.00265625 1843.69
0.00275000 1812.65
0.00284375 1783.17
0.00293750 1755.13
0.00303125 1728.40
0.00312500 1702.90
0.00321875 1678.53
0.00331250 1655.21
0.00340625 1632.86
0.00350000 1611.43
0.00359375 1590.85
0.00368750 1571.07
0.00378125 1552.04
0.00387500 1533.71
0.00396875 1516.03
0.00406250 1498.98
0.00425000 1466.61
0.00443750 1436.33
0.00462500 1407.93
0.00481250 1381.23
0.00500000 1356.07
0.00515625 1336.17
0.00531250 1317.17
0.00546875 1299.00
0.00562500 1281.60
0.00578125 1264.93
0.00593750 1248.93
0.00609375 1233.55
0.00625000 1218.77
0.00640625 1204.54
0.00656250 1190.83
0.00687500 1164.85
0.00718750 1140.62
0.00750000 1117.94
0.00781250 1096.67
0.00812500 1076.67
0.00843750 1057.81
0.00875000 1039.99
0.00906250 1023.13
0.00937500 1007.14
0.00968750 991.951
0.0100000 977.501
0.0103125 963.733
0.0106250 950.595
0.0109375 938.044
0.0112500 926.037
0.0115625 914.538
0.0118750 903.512
0.0121875 892.929
0.0125000 882.761
0.0128125 872.982
0.0131250 863.568
0.0137500 845.753
0.0143750 829.162
0.0150000 813.666
0.0156250 799.154
0.0162500 785.531
0.0168750 772.712
0.0175000 760.625
0.0181250 749.207
0.0187500 738.402
0.0193750 728.159
0.0200000 718.434
0.0204969 711.046
0.0209938 703.942
0.0219875 690.522
0.0228156 680.071
0.0236438 670.225
0.0244719 660.930
0.0253000 652.141
0.0259754 645.320
0.0266508 638.789
0.0273262 632.529
0.0280016 626.526
0.0293524 615.226
0.0307031 604.782
0.0320539 595.100
0.0334047 586.101
0.0347555 577.718
0.0361063 569.892
0.0378430 560.571
0.0395797 551.997
0.0413164 544.094
0.0430531 536.794
0.0447899 530.039
0.0465266 523.779
0.0482633 517.970
0.0500000 512.573
0.0515625 508.042
0.0531250 503.797
0.0546875 499.817
0.0562500 496.086
0.0578125 492.587
0.0593750 489.304
0.0625000 483.335
0.0656250 478.082
0.0687500 473.472
0.0718750 469.442
0.0750000 465.941
0.0781250 462.922
0.0812500 460.347
0.0843750 458.181
0.0875000 456.395
0.0906250 454.964
0.0937500 453.866
0.0968750 453.081
0.100000 452.594
0.103125 452.389
0.106250 452.455
0.109375 452.780
0.112500 453.356
0.115625 454.174
0.118750 455.227
0.121875 456.510
0.125000 458.017
0.128125 459.745
0.131250 461.691
0.134375 463.852
0.137500 466.227
0.140625 468.814
0.143750 471.614
0.146875 474.625
0.150000 477.850
0.153125 481.288
0.156250 484.943
0.159375 488.816
0.162500 492.911
0.165625 497.229
0.168750 501.777
0.171875 506.557
0.175000 511.574
0.178125 516.835
0.181250 522.345
0.184375 528.110
0.187500 534.137
0.190625 540.435
0.193750 547.012
0.196875 553.876
0.200000 561.037
0.204647 572.257
0.209295 584.194
0.213942 596.887
0.218589 610.381
0.223237 624.727
0.227884 639.979
0.232531 656.197
0.234855 664.690
0.237178 673.449
0.239502 682.485
0.241826 691.807
0.244149 701.426
0.246473 711.352
0.248797 721.598
0.251120 732.175
0.253444 743.096
0.255768 754.374
0.258091 766.024
0.260415 778.060
0.262739 790.499
0.265062 803.356
0.267386 816.649
0.269709 830.396
0.272033 844.617
0.274357 859.332
0.276258 871.755
0.278159 884.535
0.280060 897.686
0.281961 911.221
0.283863 925.154
0.285764 939.500
0.287665 954.275
0.289566 969.494
0.291467 985.178
0.293368 1001.34
0.295270 1018.01
0.297171 1035.19
0.299072 1052.92
0.300973 1071.21
0.302874 1090.09
0.304775 1109.58
0.306888 1131.99
0.309000 1155.22
0.311112 1179.32
0.313225 1204.33
0.315337 1230.29
0.316393 1243.64
0.317450 1257.25
0.318506 1271.12
0.319562 1285.26
0.320618 1299.68
0.321674 1314.37
0.323364 1338.50
0.325054 1363.39
0.326744 1389.09
0.327589 1402.26
0.328434 1415.63
0.329279 1429.23
0.330124 1443.05
0.330969 1457.10
0.331814 1471.38
0.332659 1485.90
0.333504 1500.66
0.334349 1515.67
0.335194 1530.93
0.336356 1552.35
0.337518 1574.27
0.338679 1596.71
0.339841 1619.68
0.341003 1643.21
0.342165 1667.31
0.343327 1692.00
0.344489 1717.29
0.345650 1743.22
0.346812 1769.78
0.347974 1797.01
0.349136 1824.93
0.350298 1853.56
0.351459 1882.92
0.352621 1913.04
0.353783 1943.93
0.354945 1975.64
0.355526 1991.80
0.356107 2008.17
0.356688 2024.76
0.357269 2041.57
0.357849 2058.60
0.358430 2075.85
0.359011 2093.34
0.359592 2111.05
0.360173 2129.01
0.360754 2147.20
0.361335 2165.64
0.361916 2184.33
0.362497 2203.27
0.363078 2222.47
0.363659 2241.94
0.364239 2261.66
0.364820 2281.66
0.365401 2301.93
0.365982 2322.49
0.366563 2343.32
0.367144 2364.45
0.367725 2385.87
0.368306 2407.59
0.368887 2429.61
0.369468 2451.94
0.370049 2474.58
0.370629 2497.55
0.371210 2520.83
0.371791 2544.45
0.372372 2568.40
0.372953 2592.70
0.373534 2617.34
0.374115 2642.34
0.374696 2667.69
0.375277 2693.40
0.375858 2719.49
0.376439 2745.95
0.377019 2772.79
0.377600 2800.03
0.378181 2827.66
0.378762 2855.69
0.379343 2884.13
0.379924 2912.98
0.380505 2942.25
0.381086 2971.96
0.381667 3002.09
0.382248 3032.68
0.382829 3063.71
0.383410 3095.19
0.383990 3127.14
0.384571 3159.56
0.385152 3192.45
0.385733 3225.84
0.386314 3259.71
0.386895 3294.09
0.387476 3328.97
0.388057 3364.37
0.388638 3400.28
0.389219 3436.73
0.389800 3473.72
0.390380 3511.25
0.390961 3549.33
0.391542 3587.98
0.392123 3627.20
0.392704 3666.98
0.393285 3707.35
0.393866 3748.32
0.394447 3789.88
0.395028 3832.04
0.395609 3874.82
0.396190 3918.22
0.396771 3962.25
0.397351 4006.91
0.397932 4052.21
0.398513 4098.15
0.399094 4144.75
0.399675 4192.01
0.400256 4239.94
0.400837 4288.55
0.401418 4337.83
0.401999 4387.79
0.402580 4438.44
0.403161 4489.78
0.403741 4541.82
0.404322 4594.56
0.404903 4648.00
0.405484 4702.15
0.406065 4757.01
0.406646 4812.59
0.407227 4868.87
0.407808 4925.88
0.408389 4983.60
0.408970 5042.03
0.409550 5101.18
0.410101 5157.89
0.410651 5215.23
0.411202 5273.22
0.411752 5331.83
0.412303 5391.08
0.412853 5450.94
0.413404 5511.43
0.413954 5572.51
0.414505 5634.21
0.415055 5696.51
0.415606 5759.40
0.416156 5822.85
0.416707 5886.88
0.417257 5951.47
0.418358 6082.25
0.419297 6195.39
0.420235 6309.94
0.421174 6425.83
0.422113 6542.94
0.423051 6661.18
0.423990 6780.40
0.424929 6900.50
0.425867 7021.32
0.426806 7142.73
0.427745 7264.55
0.428683 7386.61
0.429622 7508.72
0.430561 7630.69
0.431499 7752.30
0.432438 7873.36
0.433377 7993.62
0.434998 8198.80
0.436619 8399.68
0.438240 8594.94
0.439862 8783.22
0.441483 8963.15
0.443104 9133.35
0.444726 9292.45
0.446347 9439.15
0.447712 9552.14
0.449078 9654.75
0.450443 9746.33
0.451808 9826.32
0.453174 9894.22
0.454539 9949.62
0.455904 9992.17
0.457269 10021.7
0.458635 10037.9
0.460000 10041.0
0.461250 10032.2
0.462188 10018.5
0.463125 9998.66
0.464063 9972.88
0.465000 9941.25
0.466250 9890.23
0.467500 9829.45
0.468750 9759.35
0.470000 9680.41
0.471250 9593.15
0.472500 9498.15
0.473750 9396.00
0.475000 9287.32
0.476250 9172.75
0.477188 9083.34
0.478125 8991.27
0.479063 8896.80
0.480000 8800.21
0.481250 8668.60
0.482500 8534.35
0.483750 8398.08
0.485000 8260.39
0.486250 8121.87
0.487500 7983.05
0.488750 7844.48
0.490000 7706.65
0.492500 7435.00
0.495000 7171.44
0.500000 6679.21
0.503359 6381.22
0.506718 6113.47
0.510077 5878.05
0.513436 5676.13
0.516795 5508.19
0.520154 5374.20
0.523512 5273.73
0.526871 5206.01
0.529189 5177.86
0.531508 5164.40
0.533826 5165.16
0.536144 5179.53
0.538462 5206.85
0.540780 5246.31
0.545507 5360.35
0.550234 5510.88
0.559689 5866.41
0.564416 6036.95
0.569143 6176.95
0.571507 6229.54
0.573870 6267.64
0.576234 6289.41
0.578598 6293.36
0.581299 6274.62
0.584000 6230.18
0.586364 6170.03
0.588727 6090.37
0.591091 5991.99
0.593454 5876.05
0.595818 5744.07
0.598182 5597.83
0.602909 5270.62
0.621818 3797.91
0.625769 3508.79
0.629721 3236.83
0.633673 2983.88
0.637624 2750.69
0.641576 2537.16
0.645528 2342.58
0.649480 2165.87
0.653431 2005.72
0.657436 1858.89
0.661440 1726.17
0.665445 1606.15
0.669449 1497.51
0.673454 1399.04
0.677458 1309.65
0.681463 1228.34
0.685467 1154.25
0.689836 1080.74
0.694204 1014.01
0.698573 953.281
0.702941 897.889
0.707310 847.240
0.711678 800.818
0.716047 758.171
0.720415 718.903
0.724420 685.578
0.728424 654.564
0.732429 625.653
0.736433 598.660
0.740437 573.417
0.744442 549.779
0.748446 527.613
0.752451 506.801
0.756455 487.233
0.760460 468.812
0.764464 451.452
0.768469 435.071
0.772473 419.597
0.776478 404.964
0.784487 377.986
0.792496 353.714
0.800505 331.798
0.808514 311.939
0.816522 293.887
0.824531 277.429
0.832540 262.381
0.840549 248.587
0.848558 235.913
0.855111 226.294
0.861664 217.290
0.868217 208.849
0.874769 200.923
0.881322 193.470
0.887875 186.450
0.894428 179.829
0.900980 173.579
0.914086 162.086
0.927192 151.785
0.940297 142.520
0.953403 134.156
0.965052 127.387
0.976701 121.175
0.988351 115.461
1.00000 110.195
1.01074 105.693
1.02149 101.500
1.03223 97.5863
1.04297 93.9290
1.05371 90.5068
1.06445 87.3011
1.07520 84.2939
1.08594 81.4695
1.09668 78.8134
1.10742 76.3130
1.12891 71.7328
1.15039 67.6472
1.17188 63.9887
1.19141 60.9855
1.21094 58.2528
1.23047 55.7595
1.25000 53.4793
1.26563 51.7930
1.28125 50.2186
1.29688 48.7484
1.31250 47.3744
1.34375 44.8739
1.37500 42.6583
1.40625 40.6932
1.43750 38.9450
1.46875 37.3843
1.50000 35.9870
1.53125 34.7325
1.56250 33.6035
1.59375 32.5852
1.62500 31.6650
1.65625 30.8322
1.68750 30.0773
1.71875 29.3924
1.75000 28.7704
1.78125 28.2058
1.81250 27.6965
1.87500 26.8094
1.93750 26.0732
2.00000 25.4676
2.05859 25.0032
2.11719 24.6276
2.17578 24.3309
2.23438 24.1094
2.29297 23.9371
2.35156 23.8251
2.41016 23.7645
2.46875 23.7502
2.53906 23.7966
2.60938 23.9053
2.67969 24.0724
2.75000 24.2985
2.84375 24.6917
2.93750 25.1895
3.03125 25.7955
3.12500 26.5155
3.21875 27.3578
3.31250 28.3335
3.40625 29.4567
3.50000 30.7450
3.58203 32.0250
3.66406 33.4664
3.74609 35.0884
3.82813 36.9033
3.91016 38.9710
3.99219 41.3168
4.03320 42.6078
4.07422 43.9864
4.11524 45.4599
4.15625 47.0369
4.20313 48.9777
4.25000 51.0815
4.31445 54.2739
4.37891 57.8635
4.41113 59.8276
4.44336 61.9170
4.47559 64.1425
4.50781 66.5158
4.54004 69.0502
4.57227 71.7602
4.60449 74.6623
4.63672 77.7748
4.66895 81.1181
4.70117 84.7140
4.73340 88.5849
4.76563 92.7577
4.79492 96.8472
4.82422 101.254
4.85352 106.010
4.88281 111.150
4.91211 116.713
4.94141 122.749
4.97070 129.313
5.00000 136.468
5.03095 144.748
5.06190 153.865
5.09286 163.935
5.12381 175.092
5.13928 181.126
5.15476 187.494
5.17024 194.223
5.18571 201.341
5.20119 208.881
5.21666 216.880
5.23214 225.375
5.24762 234.406
5.26764 246.966
5.28767 260.613
5.30770 275.475
5.32773 291.700
5.34776 309.461
5.36778 328.959
5.38781 350.428
5.40784 374.144
5.42787 400.433
5.43788 414.661
5.44789 429.683
5.45791 445.559
5.46792 462.356
5.47794 480.147
5.48795 499.008
5.49796 519.033
5.50798 540.316
5.51799 562.966
5.52801 587.100
5.53802 612.852
5.54803 640.370
5.55805 669.819
5.56806 701.381
5.57990 741.705
5.59173 785.676
5.60357 833.752
5.61540 886.464
5.62723 944.440
5.63907 1008.40
5.65090 1079.21
5.66274 1157.87
5.67275 1231.46
5.68277 1312.41
5.69278 1401.72
5.70279 1500.58
5.71281 1610.42
5.71781 1669.97
5.72282 1732.91
5.72783 1799.52
5.73284 1870.07
5.73784 1944.88
5.74285 2024.29
5.74763 2104.76
5.75241 2190.13
5.75719 2280.83
5.76197 2377.27
5.76675 2479.97
5.77153 2589.43
5.77630 2706.25
5.78108 2831.08
5.78586 2964.67
5.79064 3107.74
5.79542 3261.19
5.80020 3425.96
5.80498 3603.14
5.80976 3793.78
5.81454 3999.15
5.81932 4220.60
5.82432 4471.44
5.82933 4743.30
5.83434 5038.08
5.83935 5357.81
5.84435 5704.57
5.84936 6080.53
5.85437 6487.87
5.85937 6928.75
5.86438 7405.21
5.86939 7919.14
5.87439 8472.19
5.87940 9065.60
5.88441 9700.17
5.88942 10376.1
5.89442 11092.8
5.89943 11848.7
5.90449 12650.9
5.90955 13487.2
5.91968 15241.8
5.93993 18863.9
5.94620 19938.1
5.95248 20949.7
5.95876 21874.4
5.96503 22688.7
5.97131 23370.8
5.97759 23901.6
5.98386 24265.8
5.99014 24452.6
5.99400 24476.9
6.00028 24368.1
6.00655 24079.2
6.01283 23619.1
6.01911 23001.4
6.02538 22243.7
6.03166 21366.9
6.03794 20393.8
6.04421 19348.4
6.05424 17586.9
6.06426 15790.7
6.07429 14035.2
6.07930 13191.6
6.08431 12378.3
6.08921 11616.3
6.09411 10890.2
6.09901 10201.6
6.10391 9551.98
6.10881 8941.33
6.11371 8369.62
6.11861 7835.92
6.12351 7339.02
6.12842 6877.33
6.13332 6449.27
6.13822 6052.80
6.14312 5686.11
6.14802 5347.04
6.15292 5033.77
6.15782 4744.29
6.16272 4476.74
6.16762 4229.33
6.17252 4000.48
6.17742 3788.58
6.18232 3592.25
6.18722 3410.11
6.19212 3241.01
6.19702 3083.81
6.20192 2937.49
6.20682 2801.10
6.21172 2673.85
6.21662 2554.97
6.22152 2443.77
6.22642 2339.58
6.23132 2241.90
6.23622 2150.19
6.24112 2063.98
6.24602 1982.82
6.25092 1906.37
6.25582 1834.25
6.26072 1766.17
6.26563 1701.80
6.27053 1640.91
6.28033 1528.58
6.29013 1427.44
6.29993 1336.08
6.30973 1253.26
6.31953 1177.97
6.32621 1130.48
6.33289 1085.83
6.33957 1043.80
6.34626 1004.19
6.35294 966.804
6.35962 931.492
6.36630 898.099
6.37299 866.487
6.38635 808.111
6.39971 755.496
6.41308 707.898
6.42644 664.703
6.43624 635.512
6.44605 608.222
6.45585 582.672
6.46565 558.719
6.47545 536.230
6.48525 515.092
6.49505 495.195
6.50485 476.449
6.51465 458.762
6.52445 442.058
6.53425 426.267
6.54405 411.323
6.56365 383.743
6.58325 358.900
6.60286 336.445
6.62246 316.082
6.64206 297.561
6.66166 280.667
6.68126 265.215
6.70086 251.049
6.72046 238.033
6.74006 226.047
6.75788 215.955
6.77570 206.558
6.79352 197.790
6.81134 189.596
6.82916 181.926
6.84698 174.738
6.86480 167.994
6.88262 161.658
6.90044 155.701
6.91826 150.093
6.93608 144.809
6.95390 139.825
6.98953 130.675
7.02517 122.492
7.04477 118.357
7.06438 114.460
7.10358 107.311
7.14278 100.932
7.18198 95.2293
7.22119 90.1263
7.26039 85.5599
7.29959 81.4791
7.33879 77.8446
7.37087 75.1827
7.40294 72.7907
7.43502 70.6652
7.46709 68.8099
7.49917 67.2382
7.53124 65.9770
7.56332 65.0736
7.57935 64.7799
7.59539 64.6104
7.61321 64.5921
7.63103 64.7882
7.64885 65.2490
7.66667 66.0453
7.67558 66.5995
7.68449 67.2790
7.69340 68.1041
7.70231 69.0998
7.71122 70.2965
7.72013 71.7316
7.72904 73.4508
7.73795 75.5091
7.74730 78.1089
7.75198 79.6046
7.75666 81.2475
7.76134 83.0520
7.76601 85.0322
7.77069 87.2044
7.77537 89.5840
7.78005 92.1888
7.78472 95.0353
7.78940 98.1405
7.79408 101.520
7.79876 105.191
7.80343 109.166
7.80811 113.459
7.81279 118.077
7.81769 123.273
7.82259 128.834
7.82749 134.757
7.83239 141.032
7.83729 147.641
7.84219 154.554
7.85199 169.142
7.85989 181.409
7.86779 193.827
7.87569 206.060
7.88359 217.726
7.88862 224.672
7.89365 231.120
7.89868 236.970
7.90370 242.125
7.90873 246.498
7.91376 250.013
7.91879 252.607
7.92381 254.234
7.93000 254.863
7.93464 254.332
7.93928 252.947
7.94392 250.730
7.94856 247.715
7.95320 243.947
7.95784 239.481
7.96249 234.380
7.96713 228.719
7.97487 218.221
7.98262 206.745
7.99812 182.345
8.00809 166.637
8.01807 151.614
8.02306 144.494
8.02804 137.687
8.03303 131.219
8.03802 125.108
8.04533 116.811
8.05265 109.311
8.05996 102.586
8.06727 96.5990
8.07459 91.2968
8.08190 86.6219
8.08922 82.5114
8.09653 78.9031
8.10385 75.7374
8.11116 72.9596
8.11847 70.5190
8.12579 68.3715
8.13310 66.4772
8.14042 64.8025
8.14773 63.3179
8.15505 61.9981
8.16236 60.8218
8.16967 59.7709
8.18430 57.9857
8.19893 56.5448
8.21356 55.3771
8.22420 54.6690
8.23484 54.0620
8.25612 53.1033
8.27739 52.4254
8.29867 51.9771
8.32793 51.6731
8.35719 51.6784
8.38645 51.9577
8.41570 52.4920
8.44496 53.2741
8.47422 54.3061
8.50348 55.5981
8.53273 57.1674
8.56199 59.0390
8.59125 61.2455
8.62051 63.8291
8.64976 66.8424
8.67902 70.3511
8.69365 72.3161
8.70828 74.4369
8.72291 76.7271
8.73753 79.2014
8.75216 81.8772
8.76679 84.7729
8.78408 88.5092
8.80137 92.6246
8.81866 97.1675
8.83595 102.194
8.85323 107.770
8.86188 110.788
8.87052 113.973
8.87917 117.338
8.88781 120.895
8.89646 124.659
8.90510 128.644
8.91241 132.203
8.91973 135.945
8.92704 139.881
8.93436 144.025
8.94167 148.393
8.94899 152.998
8.95630 157.859
8.96361 162.995
8.97093 168.427
8.97824 174.177
8.98556 180.271
8.99287 186.735
9.00019 193.601
9.00750 200.902
9.01482 208.676
9.02213 216.964
9.02944 225.815
9.03676 235.278
9.04407 245.414
9.05139 256.285
9.05870 267.970
9.06602 280.547
9.07333 294.114
9.08064 308.778
9.08796 324.666
9.09527 341.914
9.10259 360.689
9.10624 370.707
9.10990 381.180
9.11356 392.139
9.11722 403.608
9.12087 415.625
9.12453 428.224
9.12819 441.445
9.13184 455.329
9.13550 469.922
9.13916 485.274
9.14282 501.441
9.14647 518.474
9.15013 536.438
9.15379 555.403
9.15745 575.448
9.16110 596.642
9.16476 619.077
9.16842 642.847
9.17207 668.060
9.17573 694.813
9.17939 723.230
9.18305 753.440
9.18670 785.587
9.19036 819.801
9.19402 856.249
9.19767 895.097
9.20067 928.802
9.20366 964.324
9.20665 1001.78
9.20964 1041.29
9.21264 1082.98
9.21563 1126.94
9.21862 1173.31
9.22161 1222.21
9.22461 1273.81
9.22760 1328.19
9.23059 1385.50
9.23358 1445.89
9.23657 1509.49
9.23957 1576.43
9.24256 1646.84
9.24555 1720.86
9.24921 1816.42
9.25286 1917.74
