F-19(n,g) ENDFB-8.0
Energy(eV) XS(b)
1.00000E-05 0.481801
1.02415E-05 0.476087
1.04830E-05 0.470571
1.09660E-05 0.460091
1.14490E-05 0.450282
1.19320E-05 0.441074
1.22160E-05 0.435917
1.25000E-05 0.430936
1.28125E-05 0.425648
1.31250E-05 0.420551
1.31370E-05 0.420359
1.31661E-05 0.419894
1.31952E-05 0.419430
1.32534E-05 0.418508
1.33699E-05 0.416682
1.36028E-05 0.413099
1.40685E-05 0.406204
1.45343E-05 0.399643
1.50000E-05 0.393389
1.56165E-05 0.385546
1.62330E-05 0.378154
1.68495E-05 0.371171
1.74660E-05 0.364562
1.75000E-05 0.364208
1.75781E-05 0.363397
1.76563E-05 0.362592
1.78125E-05 0.360999
1.81250E-05 0.357873
1.87500E-05 0.351858
1.93750E-05 0.346136
2.00000E-05 0.340685
2.09210E-05 0.333102
2.18420E-05 0.326003
2.27630E-05 0.319340
2.36840E-05 0.313069
2.46370E-05 0.306955
2.55900E-05 0.301185
2.56250E-05 0.300979
2.57395E-05 0.300309
2.58540E-05 0.299643
2.60830E-05 0.298325
2.65410E-05 0.295740
2.65625E-05 0.295620
2.66205E-05 0.295297
2.66786E-05 0.294976
2.67946E-05 0.294337
2.70268E-05 0.293070
2.74910E-05 0.290585
2.75000E-05 0.290537
2.75277E-05 0.290391
2.75554E-05 0.290245
2.76108E-05 0.289954
2.77216E-05 0.289374
2.79432E-05 0.288224
2.83864E-05 0.285965
2.92728E-05 0.281602
3.01591E-05 0.277433
3.10455E-05 0.273444
3.19319E-05 0.269622
3.28183E-05 0.265956
3.37046E-05 0.262436
3.45910E-05 0.259052
3.50000E-05 0.257534
3.58885E-05 0.254326
3.67770E-05 0.251235
3.76655E-05 0.248254
3.85540E-05 0.245377
4.03310E-05 0.239910
4.21080E-05 0.234793
4.25000E-05 0.233708
4.34375E-05 0.231172
4.43750E-05 0.228717
4.62500E-05 0.224033
4.81250E-05 0.219625
5.00000E-05 0.215468
5.23438E-05 0.210589
5.46875E-05 0.206027
5.70313E-05 0.201749
5.93750E-05 0.197727
6.09375E-05 0.195176
6.25000E-05 0.192721
6.40625E-05 0.190356
6.56250E-05 0.188076
6.71875E-05 0.185876
6.87500E-05 0.183752
6.88740E-05 0.183586
6.92569E-05 0.183078
6.96398E-05 0.182574
7.04055E-05 0.181579
7.19370E-05 0.179635
7.50000E-05 0.175929
7.81250E-05 0.172375
8.12500E-05 0.169027
8.43750E-05 0.165867
8.75000E-05 0.162879
9.06250E-05 0.160046
9.37500E-05 0.157356
9.68750E-05 0.154797
0.000100000 0.152359
0.000103125 0.150033
0.000106250 0.147810
0.000106330 0.147754
0.000106622 0.147552
0.000106914 0.147351
0.000107497 0.146950
0.000108664 0.146159
0.000110998 0.144614
0.000115665 0.141666
0.000120333 0.138892
0.000125000 0.136274
0.000128065 0.134633
0.000131130 0.133051
0.000137260 0.130046
0.000137500 0.129932
0.000138281 0.129565
0.000139063 0.129200
0.000140625 0.128480
0.000143750 0.127076
0.000143990 0.126970
0.000144741 0.126640
0.000145493 0.126313
0.000146995 0.125666
0.000150000 0.124401
0.000155905 0.122022
0.000161810 0.119775
0.000167715 0.117647
0.000173620 0.115629
0.000175000 0.115173
0.000178125 0.114158
0.000181250 0.113169
0.000187500 0.111267
0.000193750 0.109458
0.000200000 0.107734
0.000205236 0.106351
0.000210473 0.105020
0.000215709 0.103737
0.000220945 0.102501
0.000226181 0.101307
0.000231418 0.100154
0.000241890 0.0979623
0.000247743 0.0967983
0.000253595 0.0956748
0.000265300 0.0935404
0.000265625 0.0934832
0.000266797 0.0932777
0.000267969 0.0930735
0.000270313 0.0926691
0.000275000 0.0918759
0.000284280 0.0903639
0.000293560 0.0889241
0.000293750 0.0888954
0.000294336 0.0888068
0.000294922 0.0887186
0.000296094 0.0885428
0.000298438 0.0881945
0.000303125 0.0875099
0.000312500 0.0861872
0.000321875 0.0849228
0.000331250 0.0837125
0.000331340 0.0837011
0.000331632 0.0836643
0.000331923 0.0836275
0.000332506 0.0835542
0.000333673 0.0834080
0.000336005 0.0831180
0.000340670 0.0825470
0.000350000 0.0814393
0.000358713 0.0804442
0.000367425 0.0794847
0.000376138 0.0785588
0.000384850 0.0776645
0.000402275 0.0759638
0.000419700 0.0743701
0.000425000 0.0739050
0.000440848 0.0725644
0.000456695 0.0712943
0.000472543 0.0700886
0.000488390 0.0689421
0.000500000 0.0681370
0.000515625 0.0670967
0.000531250 0.0661026
0.000546875 0.0651514
0.000562500 0.0642402
0.000563490 0.0641837
0.000567334 0.0639659
0.000571179 0.0637503
0.000578868 0.0633255
0.000594245 0.0625008
0.000609623 0.0617074
0.000625000 0.0609436
0.000649000 0.0598061
0.000673000 0.0587301
0.000697000 0.0577101
0.000721000 0.0567414
0.000750000 0.0556336
0.000773438 0.0547842
0.000796875 0.0539726
0.000820313 0.0531959
0.000843750 0.0524519
0.000845310 0.0524035
0.000849021 0.0522888
0.000852733 0.0521749
0.000860155 0.0519493
0.000875000 0.0515067
0.000906250 0.0506109
0.000937500 0.0497602
0.000968750 0.0489511
0.00100000 0.0481801
0.00104688 0.0470891
0.00109375 0.0460690
0.00114063 0.0451125
0.00118750 0.0442131
0.00118920 0.0441815
0.00119300 0.0441111
0.00119680 0.0440410
0.00120440 0.0439018
0.00121960 0.0436274
0.00125000 0.0430936
0.00128125 0.0425649
0.00131250 0.0420551
0.00134375 0.0415632
0.00137500 0.0410882
0.00137690 0.0410598
0.00138459 0.0409456
0.00139229 0.0408323
0.00140768 0.0406085
0.00143845 0.0401717
0.00150000 0.0393389
0.00156250 0.0385441
0.00156320 0.0385355
0.00156465 0.0385177
0.00156609 0.0384999
0.00156898 0.0384645
0.00157476 0.0383938
0.00158631 0.0382537
0.00160943 0.0379781
0.00165565 0.0374441
0.00170188 0.0369321
0.00174810 0.0364406
0.00175000 0.0364208
0.00175391 0.0363802
0.00175781 0.0363397
0.00176563 0.0362593
0.00178125 0.0360999
0.00181250 0.0357873
0.00187500 0.0351858
0.00193750 0.0346136
0.00200000 0.0340685
0.00208480 0.0333684
0.00216960 0.0327098
0.00225440 0.0320887
0.00233920 0.0315017
0.00244190 0.0308322
0.00254460 0.0302036
0.00264730 0.0296119
0.00275000 0.0290537
0.00281955 0.0286932
0.00288910 0.0283457
0.00295865 0.0280105
0.00302820 0.0276870
0.00316730 0.0270722
0.00330640 0.0264966
0.00331250 0.0264722
0.00333594 0.0263791
0.00335938 0.0262869
0.00340625 0.0261054
0.00350000 0.0257534
0.00364063 0.0252511
0.00378125 0.0247771
0.00392188 0.0243288
0.00406250 0.0239041
0.00406760 0.0238891
0.00407900 0.0238557
0.00409040 0.0238224
0.00411320 0.0237563
0.00415880 0.0236257
0.00425000 0.0233708
0.00443750 0.0228717
0.00462500 0.0224033
0.00481250 0.0219626
0.00500000 0.0215468
0.00514054 0.0212503
0.00528108 0.0209656
0.00542161 0.0206921
0.00556215 0.0204290
0.00570269 0.0201757
0.00584323 0.0199316
0.00598376 0.0196962
0.00612430 0.0194689
0.00625000 0.0192721
0.00640625 0.0190356
0.00656250 0.0188076
0.00657030 0.0187965
0.00658852 0.0187705
0.00660674 0.0187446
0.00664318 0.0186931
0.00671605 0.0185914
0.00686180 0.0183929
0.00687500 0.0183752
0.00691406 0.0183232
0.00695313 0.0182717
0.00703125 0.0181699
0.00718750 0.0179713
0.00750000 0.0175929
0.00780920 0.0172411
0.00811840 0.0169096
0.00812500 0.0169028
0.00814453 0.0168825
0.00816406 0.0168623
0.00820313 0.0168221
0.00828125 0.0167425
0.00843750 0.0165868
0.00875000 0.0162879
0.00906250 0.0160046
0.00937500 0.0157356
0.00968750 0.0154797
0.0100000 0.0152360
0.0103110 0.0150044
0.0106220 0.0147831
0.0106250 0.0147811
0.0106323 0.0147760
0.0106397 0.0147709
0.0106543 0.0147607
0.0106836 0.0147405
0.0107422 0.0147002
0.0108594 0.0146207
0.0110938 0.0144654
0.0115625 0.0141692
0.0120313 0.0138904
0.0125000 0.0136275
0.0128125 0.0134603
0.0131250 0.0132991
0.0134375 0.0131435
0.0137500 0.0129933
0.0143750 0.0127077
0.0150000 0.0124401
0.0156250 0.0121888
0.0162500 0.0119521
0.0168750 0.0117287
0.0175000 0.0115173
0.0181250 0.0113170
0.0187500 0.0111268
0.0193750 0.0109459
0.0200000 0.0107735
0.0206625 0.0105994
0.0213250 0.0104334
0.0219875 0.0102750
0.0226500 0.0101236
0.0226790 0.0101172
0.0227609 0.0100989
0.0228428 0.0100808
0.0230066 0.0100449
0.0233343 0.00997410
0.0239895 0.00983694
0.0246448 0.00970528
0.0253000 0.00957877
0.0264578 0.00936684
0.0276156 0.00916837
0.0287734 0.00898201
0.0299313 0.00880657
0.0307031 0.00869517
0.0314750 0.00858789
0.0330188 0.00838472
0.0345625 0.00819533
0.0361063 0.00801821
0.0376490 0.00785221
0.0376500 0.00785211
0.0376564 0.00785144
0.0376627 0.00785078
0.0376754 0.00784946
0.0377008 0.00784681
0.0377517 0.00784152
0.0378534 0.00783099
0.0380567 0.00781004
0.0384634 0.00776864
0.0392768 0.00768778
0.0409035 0.00753336
0.0425303 0.00738788
0.0441570 0.00725052
0.0456178 0.00713349
0.0470785 0.00702196
0.0485393 0.00691550
0.0500000 0.00681373
0.0523293 0.00666037
0.0546585 0.00651692
0.0569878 0.00638235
0.0593170 0.00625579
0.0593750 0.00625273
0.0595703 0.00624247
0.0597656 0.00623227
0.0601563 0.00621200
0.0609375 0.00617205
0.0625000 0.00609441
0.0656250 0.00594754
0.0687500 0.00581080
0.0718750 0.00568307
0.0750000 0.00556341
0.0781250 0.00545100
0.0812500 0.00534515
0.0843750 0.00524523
0.0875000 0.00515072
0.0906250 0.00506114
0.0937500 0.00497608
0.0968750 0.00489517
0.100000 0.00481808
0.105651 0.00468747
0.111301 0.00456694
0.116952 0.00445525
0.122603 0.00435137
0.125000 0.00430944
0.131162 0.00420698
0.137325 0.00411150
0.143487 0.00402224
0.149649 0.00393856
0.150000 0.00393395
0.150781 0.00392375
0.151563 0.00391362
0.153125 0.00389360
0.156250 0.00385447
0.156280 0.00385411
0.156353 0.00385320
0.156426 0.00385230
0.156572 0.00385050
0.156865 0.00384691
0.157450 0.00383976
0.158620 0.00382557
0.160960 0.00379767
0.165640 0.00374364
0.175000 0.00364217
0.181250 0.00357884
0.187500 0.00351870
0.200000 0.00340699
0.210246 0.00332295
0.220492 0.00324482
0.230738 0.00317196
0.240984 0.00310379
0.246875 0.00306653
0.246914 0.00306629
0.247024 0.00306561
0.247133 0.00306493
0.247353 0.00306357
0.247792 0.00306086
0.248669 0.00305545
0.250425 0.00304472
0.253935 0.00302360
0.260957 0.00298264
0.275000 0.00290549
0.287557 0.00284135
0.300114 0.00278129
0.312671 0.00272488
0.325228 0.00267178
0.350000 0.00257550
0.368387 0.00251040
0.386774 0.00244999
0.405161 0.00239373
0.423548 0.00234119
0.425000 0.00233719
0.429174 0.00232579
0.433348 0.00231456
0.441696 0.00229259
0.458393 0.00225045
0.491785 0.00217273
0.500000 0.00215481
0.523265 0.00210637
0.546530 0.00206105
0.593061 0.00197854
0.593750 0.00197739
0.595703 0.00197415
0.597656 0.00197092
0.601563 0.00196451
0.609375 0.00195188
0.625000 0.00192733
0.682586 0.00184426
0.740173 0.00177108
0.750000 0.00175944
0.781250 0.00172390
0.812500 0.00169043
0.875000 0.00162893
0.937500 0.00157371
1.00000 0.00152375
1.09349 0.00145717
1.18698 0.00139863
1.18750 0.00139832
1.18945 0.00139718
1.19141 0.00139603
1.19531 0.00139375
1.20313 0.00138922
1.21875 0.00138028
1.25000 0.00136292
1.31250 0.00133009
1.31439 0.00132913
1.32019 0.00132621
1.32599 0.00132331
1.33759 0.00131756
1.36079 0.00130630
1.40719 0.00128460
1.50000 0.00124424
1.62500 0.00119546
1.75000 0.00115197
1.87500 0.00111292
2.00000 0.00107760
2.14063 0.00104163
2.28125 0.00100904
2.28253 0.00100876
2.28598 0.00100799
2.28944 0.00100723
2.29634 0.00100572
2.31015 0.00100271
2.33777 0.000996768
2.39300 0.000985195
2.50348 0.000963211
2.72442 0.000923332
2.75000 0.000919028
2.84309 0.000903861
2.93618 0.000889428
2.93750 0.000889228
2.94190 0.000888565
2.94629 0.000887902
2.95508 0.000886582
2.97266 0.000883960
3.00781 0.000878786
3.07813 0.000868701
3.21875 0.000849518
3.50000 0.000814676
3.82612 0.000779207
4.15225 0.000747993
4.25000 0.000739349
4.50000 0.000718522
5.00000 0.000681705
5.46475 0.000652105
5.92950 0.000626049
5.93750 0.000625627
5.95703 0.000624602
5.97656 0.000623581
6.01563 0.000621556
6.09375 0.000617562
6.25000 0.000609803
6.82551 0.000583576
7.40102 0.000560449
7.50000 0.000556741
7.81250 0.000545500
8.12500 0.000534933
8.75000 0.000515489
9.37500 0.000498039
10.0000 0.000482244
10.6250 0.000467881
10.6461 0.000467419
10.7216 0.000465774
10.7970 0.000464146
10.9480 0.000460943
11.2500 0.000454733
11.2623 0.000454486
11.3010 0.000453709
11.3397 0.000452937
11.4170 0.000451404
11.5717 0.000448388
11.8812 0.000442541
12.5000 0.000431479
13.1250 0.000421106
13.1293 0.000421038
13.1439 0.000420804
13.1585 0.000420571
13.1877 0.000420105
13.2462 0.000419180
13.3631 0.000417346
13.5969 0.000413752
14.0646 0.000406833
15.0000 0.000393974
15.0148 0.000393780
15.0536 0.000393273
15.0924 0.000392768
15.1701 0.000391764
15.3254 0.000389780
15.6361 0.000385904
16.2574 0.000378495
17.5000 0.000364838
20.0000 0.000341344
21.8750 0.000326429
23.7500 0.000313322
24.0000 0.000311691
24.8734 0.000306220
25.7468 0.000301028
27.4936 0.000291400
27.5000 0.000291367
27.5214 0.000291255
27.5427 0.000291143
27.5854 0.000290920
27.6709 0.000290475
27.8417 0.000289593
28.1834 0.000287850
28.8668 0.000284453
30.2337 0.000278006
32.9673 0.000266355
35.0000 0.000258579
35.0457 0.000258412
35.1622 0.000257988
35.2787 0.000257566
35.5116 0.000256729
35.9775 0.000255074
36.9093 0.000251866
38.7729 0.000245795
42.5000 0.000234877
46.2307 0.000225293
46.2500 0.000225247
46.3086 0.000225106
46.3672 0.000224965
46.4844 0.000224684
46.7188 0.000224126
47.1875 0.000223020
48.1250 0.000220856
50.0000 0.000216725
56.2402 0.000204457
56.2500 0.000204439
56.2744 0.000204395
56.2988 0.000204351
56.3477 0.000204263
56.4453 0.000204088
56.6406 0.000203740
57.0313 0.000203048
57.8125 0.000201682
59.3750 0.000199037
62.5000 0.000194045
73.7787 0.000178746
75.0000 0.000177301
79.6875 0.000172056
84.3750 0.000167259
84.4920 0.000167144
84.8680 0.000166777
85.2440 0.000166413
85.9960 0.000165689
87.5000 0.000164273
90.6250 0.000161448
93.7500 0.000158754
100.000 0.000153768
106.250 0.000149271
106.418 0.000149156
106.999 0.000148761
107.579 0.000148371
108.741 0.000147594
111.064 0.000146081
115.709 0.000143179
125.000 0.000137881
143.750 0.000128778
143.876 0.000128723
144.258 0.000128557
144.641 0.000128393
145.407 0.000128065
146.938 0.000127410
150.000 0.000126132
153.000 0.000124919
156.250 0.000123714
156.309 0.000123693
156.455 0.000123640
156.601 0.000123588
156.893 0.000123483
157.477 0.000123275
158.645 0.000122860
160.982 0.000122041
165.654 0.000120449
175.000 0.000117455
200.000 0.000110483
238.045 0.000102002
255.765 9.87026E-05
256.250 9.86170E-05
257.422 9.84122E-05
258.594 9.82082E-05
260.938 9.78009E-05
265.625 9.70070E-05
275.000 9.54765E-05
311.906 9.01206E-05
312.500 9.00427E-05
314.844 8.97392E-05
317.188 8.94364E-05
321.875 8.88315E-05
331.250 8.76719E-05
350.000 8.54882E-05
421.352 7.85140E-05
425.000 7.82062E-05
434.375 7.74281E-05
443.750 7.66739E-05
462.500 7.52328E-05
500.000 7.25953E-05
604.376 6.65487E-05
625.000 6.55335E-05
687.500 6.27333E-05
750.000 6.02804E-05
812.200 5.81178E-05
812.500 5.81080E-05
813.464 5.80766E-05
814.428 5.80454E-05
816.356 5.79835E-05
820.211 5.78596E-05
827.922 5.76119E-05
843.344 5.71258E-05
874.189 5.61905E-05
875.000 5.61666E-05
876.953 5.61096E-05
878.906 5.60529E-05
882.813 5.59393E-05
890.625 5.57133E-05
906.250 5.52741E-05
937.500 5.44180E-05
938.077 5.44027E-05
940.012 5.43519E-05
941.947 5.43016E-05
945.818 5.42012E-05
953.558 5.40005E-05
969.039 5.35997E-05
1000.00 5.28348E-05
1062.34 5.15844E-05
1062.50 5.15814E-05
1062.87 5.15744E-05
1063.23 5.15674E-05
1063.97 5.15534E-05
1065.43 5.15257E-05
1068.36 5.14703E-05
1074.22 5.13596E-05
1085.94 5.11383E-05
1109.38 5.07090E-05
1156.25 4.98874E-05
1250.00 4.83756E-05
1311.88 4.75344E-05
1312.50 4.75265E-05
1313.97 4.75082E-05
1315.43 4.74899E-05
1318.36 4.74536E-05
1324.22 4.73810E-05
1335.94 4.72358E-05
1359.38 4.69476E-05
1406.25 4.63954E-05
1500.00 4.53589E-05
1501.66 4.53413E-05
1562.50 4.47161E-05
1563.96 4.47014E-05
1569.77 4.46441E-05
1575.58 4.45873E-05
1587.21 4.44736E-05
1610.47 4.42462E-05
1656.98 4.38078E-05
1750.00 4.29788E-05
2000.00 4.10189E-05
2279.02 3.96213E-05
2281.25 3.96111E-05
2369.15 3.92162E-05
2375.00 3.91908E-05
2398.44 3.90901E-05
2421.88 3.89893E-05
2468.75 3.87910E-05
2562.50 3.84116E-05
2750.00 3.76979E-05
3000.00 3.68376E-05
3500.00 3.59340E-05
4000.00 3.51694E-05
4062.50 3.51420E-05
4250.00 3.50640E-05
4437.50 3.49860E-05
4500.00 3.49601E-05
4750.00 3.48675E-05
5000.00 3.47762E-05
5500.00 3.50050E-05
6000.00 3.52172E-05
6250.00 3.55039E-05
7000.00 3.63182E-05
7250.00 3.67579E-05
7500.00 3.71867E-05
8000.00 3.80249E-05
8750.00 3.97385E-05
9000.00 4.03531E-05
10000.0 4.33757E-05
10500.0 4.52940E-05
11000.0 4.72242E-05
12813.1 6.25819E-05
14626.1 7.79496E-05
15532.7 8.56335E-05
15985.9 8.94755E-05
16439.2 0.000100901
18252.3 0.000148230
19000.0 0.000167872
20000.0 0.000235980
21000.0 0.000304420
21500.0 0.000372980
21750.0 0.000407365
21875.0 0.000424557
22000.0 0.000453763
22500.0 0.000583822
23000.0 0.000714436
23250.0 0.000822691
23375.0 0.000885485
23500.0 0.00100511
24000.0 0.00148374
24500.0 0.00196238
24562.5 0.00202291
24625.0 0.00215561
24750.0 0.00244878
25000.0 0.00303897
25087.5 0.00334238
25131.3 0.00349630
25175.0 0.00371500
25350.0 0.00472381
25525.0 0.00573262
25546.9 0.00586261
25568.8 0.00607019
25612.5 0.00660846
25700.0 0.00768808
25875.0 0.00985025
25885.9 0.0100180
25896.9 0.0102680
25918.8 0.0109039
25962.5 0.0122037
26050.0 0.0148032
26137.5 0.0174027
26181.3 0.0187025
26203.1 0.0194133
26214.1 0.0199731
26225.0 0.0206981
26268.8 0.0237782
26312.5 0.0268612
26356.3 0.0299442
26378.1 0.0314867
26389.1 0.0322733
26400.0 0.0331653
26412.5 0.0344273
26425.0 0.0358108
26437.5 0.0372567
26450.0 0.0388471
26475.0 0.0424203
26487.5 0.0442553
26500.0 0.0462123
26512.5 0.0484344
26525.0 0.0507786
26537.5 0.0531495
26550.0 0.0556908
26562.5 0.0586017
26575.0 0.0616829
26587.5 0.0647993
26600.0 0.0681280
26612.5 0.0719173
26625.0 0.0759258
26637.5 0.0800806
26643.8 0.0823335
26650.0 0.0847786
26662.5 0.0901709
26675.0 0.0958185
26687.5 0.101535
26693.8 0.104525
26700.0 0.107755
26712.5 0.115065
26725.0 0.122880
26737.5 0.130786
26743.8 0.134878
26750.0 0.139259
26756.3 0.144068
26762.5 0.149273
26775.0 0.160232
26787.5 0.171382
26800.0 0.183219
26812.5 0.196546
26825.0 0.210786
26837.5 0.226071
26850.0 0.242713
26862.5 0.260709
26875.0 0.279269
26900.0 0.316636
26925.0 0.353623
26937.5 0.371773
26950.0 0.388774
26956.3 0.395929
26962.5 0.401828
26975.0 0.411002
26987.5 0.418987
26993.8 0.422358
27000.0 0.424540
27004.0 0.425047
27010.0 0.424518
27016.0 0.422893
27028.0 0.418037
27034.0 0.414684
27040.0 0.410343
27046.0 0.404940
27052.0 0.398596
27064.0 0.384027
27076.0 0.368275
27088.0 0.351264
27100.0 0.333286
27125.0 0.295493
27137.5 0.276715
27150.0 0.258760
27162.5 0.242408
27175.0 0.226745
27187.5 0.211202
27200.0 0.196306
27206.3 0.189435
27212.5 0.182990
27225.0 0.171148
27237.5 0.160102
27250.0 0.149773
27262.5 0.140728
27275.0 0.132281
27287.5 0.123935
27300.0 0.116040
27312.5 0.109110
27325.0 0.102734
27337.5 0.0968422
27350.0 0.0915510
27362.5 0.0868428
27375.0 0.0823790
27387.5 0.0779562
27400.0 0.0737399
27412.5 0.0700698
27425.0 0.0667573
27437.5 0.0635182
27450.0 0.0604507
27462.5 0.0577449
27475.0 0.0552088
27500.0 0.0502952
27512.5 0.0481703
27525.0 0.0462182
27550.0 0.0424726
27575.0 0.0392909
27600.0 0.0363020
27625.0 0.0337579
27650.0 0.0313516
27675.0 0.0292351
27700.0 0.0273434
27750.0 0.0240724
27775.0 0.0226730
27800.0 0.0213742
27850.0 0.0194841
27900.0 0.0176563
27950.0 0.0158285
27975.0 0.0149148
27987.5 0.0144653
28000.0 0.0140769
28015.6 0.0137424
28031.3 0.0134604
28062.5 0.0128999
28125.0 0.0117788
28250.0 0.00953660
28312.5 0.00843555
28328.1 0.00825752
28343.8 0.00812723
28375.0 0.00787319
28500.0 0.00685712
28625.0 0.00584105
28687.5 0.00533302
28718.8 0.00508371
28750.0 0.00493382
28875.0 0.00448426
29000.0 0.00403473
29250.0 0.00313569
29312.5 0.00293177
29375.0 0.00282404
29500.0 0.00261058
29750.0 0.00218366
29875.0 0.00197708
30000.0 0.00183434
30500.0 0.00146981
30750.0 0.00128832
31000.0 0.00112719
32000.0 0.000786077
32500.0 0.000689257
32750.0 0.000641125
33000.0 0.000609777
34000.0 0.000495146
35000.0 0.000431052
36000.0 0.000386998
37000.0 0.000367702
37500.0 0.000358093
38000.0 0.000355048
40000.0 0.000377984
41750.0 0.000461716
41859.4 0.000466994
41968.8 0.000479315
42187.5 0.000512953
42625.0 0.000580230
43062.5 0.000647506
43281.3 0.000681144
43390.6 0.000697996
43418.0 0.000711242
43445.3 0.000773622
43472.7 0.000856577
43479.5 0.000906958
43482.9 0.000959922
43486.3 0.00104976
43489.8 0.00119712
43493.2 0.00142476
43496.6 0.00175450
43500.0 0.00220070
43502.5 0.00260609
43505.0 0.00307612
43510.0 0.00418831
43520.0 0.00686765
43540.0 0.0127228
43560.0 0.0185167
43570.0 0.0208046
43575.0 0.0213918
